TITLE,
DATA TYPE,RAMAN SPECTRUM
ORIGIN,JASCO
OWNER,
DATE,25/10/24
TIME,12:09:56
SPECTROMETER/DATA SYSTEM,
LOCALE,1041
XUNITS,1/CM
YUNITS,INTENSITY
FIRSTX,  999.9351
LASTX, 4000.3132
NPOINTS,    5264
XYDATA
999.9351,1262
1000.7448,1272
1001.5543,1260
1002.3637,1263
1003.1730,1269
1003.9821,1270
1004.7911,1262
1005.5999,1267
1006.4086,1267
1007.2171,1278
1008.0255,1277
1008.8337,1265
1009.6418,1285
1010.4497,1281
1011.2575,1278
1012.0651,1272
1012.8726,1284
1013.6799,1289
1014.4871,1295
1015.2941,1290
1016.1010,1283
1016.9078,1301
1017.7144,1291
1018.5208,1311
1019.3271,1291
1020.1332,1270
1020.9392,1295
1021.7451,1304
1022.5508,1295
1023.3563,1301
1024.1617,1293
1024.9669,1297
1025.7721,1307
1026.5770,1316
1027.3818,1313
1028.1865,1331
1028.9910,1302
1029.7954,1300
1030.5996,1303
1031.4037,1323
1032.2075,1293
1033.0114,1325
1033.8149,1321
1034.6184,1327
1035.4218,1318
1036.2250,1320
1037.0280,1320
1037.8308,1329
1038.6335,1340
1039.4362,1321
1040.2386,1315
1041.0409,1323
1041.8430,1322
1042.6450,1335
1043.4469,1329
1044.2487,1342
1045.0502,1334
1045.8516,1349
1046.6528,1353
1047.4540,1340
1048.2549,1359
1049.0557,1353
1049.8564,1339
1050.6569,1340
1051.4573,1365
1052.2576,1365
1053.0576,1367
1053.8575,1375
1054.6573,1364
1055.4569,1369
1056.2565,1369
1057.0558,1364
1057.8550,1382
1058.6541,1371
1059.4529,1375
1060.2517,1382
1061.0503,1370
1061.8488,1398
1062.6471,1397
1063.4452,1409
1064.2433,1380
1065.0411,1385
1065.8389,1391
1066.6365,1394
1067.4338,1397
1068.2312,1397
1069.0283,1410
1069.8253,1409
1070.6222,1416
1071.4188,1392
1072.2155,1395
1073.0118,1408
1073.8081,1435
1074.6042,1427
1075.4001,1420
1076.1959,1408
1076.9917,1417
1077.7872,1428
1078.5825,1417
1079.3778,1430
1080.1729,1438
1080.9679,1434
1081.7627,1431
1082.5573,1445
1083.3518,1417
1084.1461,1441
1084.9403,1424
1085.7344,1443
1086.5283,1440
1087.3221,1442
1088.1157,1445
1088.9093,1466
1089.7026,1463
1090.4957,1442
1091.2888,1457
1092.0817,1444
1092.8745,1462
1093.6671,1447
1094.4596,1445
1095.2518,1463
1096.0441,1467
1096.8361,1464
1097.6279,1459
1098.4197,1457
1099.2113,1479
1100.0027,1459
1100.7939,1482
1101.5852,1480
1102.3762,1465
1103.1670,1466
1103.9578,1473
1104.7483,1467
1105.5387,1463
1106.3290,1478
1107.1191,1476
1107.9092,1487
1108.6990,1487
1109.4886,1498
1110.2782,1480
1111.0676,1480
1111.8569,1505
1112.6460,1500
1113.4351,1495
1114.2239,1504
1115.0126,1501
1115.8010,1498
1116.5895,1513
1117.3777,1503
1118.1658,1511
1118.9537,1493
1119.7416,1491
1120.5293,1507
1121.3168,1506
1122.1041,1495
1122.8914,1497
1123.6785,1492
1124.4655,1502
1125.2522,1513
1126.0389,1504
1126.8254,1503
1127.6118,1509
1128.3979,1507
1129.1841,1499
1129.9700,1522
1130.7559,1494
1131.5415,1517
1132.3269,1513
1133.1123,1525
1133.8976,1529
1134.6826,1522
1135.4675,1537
1136.2523,1529
1137.0370,1533
1137.8214,1515
1138.6058,1525
1139.3900,1526
1140.1741,1535
1140.9580,1536
1141.7417,1541
1142.5254,1542
1143.3088,1541
1144.0922,1543
1144.8754,1542
1145.6584,1541
1146.4414,1533
1147.2241,1548
1148.0067,1558
1148.7892,1550
1149.5715,1549
1150.3538,1552
1151.1359,1552
1151.9177,1570
1152.6995,1568
1153.4811,1566
1154.2626,1563
1155.0439,1550
1155.8251,1577
1156.6061,1573
1157.3871,1566
1158.1677,1591
1158.9484,1584
1159.7289,1578
1160.5092,1581
1161.2894,1594
1162.0695,1574
1162.8494,1562
1163.6290,1593
1164.4087,1600
1165.1881,1578
1165.9675,1612
1166.7467,1603
1167.5256,1616
1168.3046,1615
1169.0834,1603
1169.8619,1611
1170.6404,1612
1171.4187,1633
1172.1969,1623
1172.9750,1619
1173.7528,1630
1174.5306,1631
1175.3082,1618
1176.0857,1625
1176.8630,1630
1177.6401,1654
1178.4172,1618
1179.1941,1658
1179.9708,1681
1180.7476,1661
1181.5239,1638
1182.3003,1659
1183.0765,1634
1183.8525,1661
1184.6284,1661
1185.4042,1666
1186.1798,1686
1186.9553,1672
1187.7306,1663
1188.5057,1669
1189.2809,1693
1190.0558,1691
1190.8304,1686
1191.6051,1700
1192.3796,1700
1193.1539,1707
1193.9281,1703
1194.7021,1713
1195.4761,1724
1196.2499,1697
1197.0234,1691
1197.7970,1705
1198.5703,1728
1199.3435,1689
1200.1166,1721
1200.8895,1718
1201.6622,1715
1202.4349,1746
1203.2074,1732
1203.9797,1732
1204.7520,1757
1205.5240,1718
1206.2959,1754
1207.0677,1755
1207.8394,1753
1208.6108,1723
1209.3822,1753
1210.1534,1738
1210.9246,1753
1211.6954,1753
1212.4662,1766
1213.2369,1758
1214.0074,1777
1214.7777,1772
1215.5480,1774
1216.3181,1753
1217.0880,1772
1217.8578,1796
1218.6274,1799
1219.3970,1768
1220.1664,1788
1220.9357,1777
1221.7047,1786
1222.4736,1804
1223.2426,1773
1224.0112,1814
1224.7797,1808
1225.5481,1809
1226.3164,1814
1227.0845,1812
1227.8524,1813
1228.6202,1800
1229.3879,1821
1230.1555,1815
1230.9230,1850
1231.6902,1818
1232.4573,1823
1233.2244,1812
1233.9912,1836
1234.7578,1869
1235.5244,1835
1236.2909,1839
1237.0571,1846
1237.8232,1846
1238.5894,1856
1239.3551,1879
1240.1208,1852
1240.8865,1875
1241.6519,1857
1242.4172,1874
1243.1824,1894
1243.9474,1892
1244.7123,1908
1245.4771,1885
1246.2416,1886
1247.0061,1885
1247.7704,1900
1248.5345,1909
1249.2986,1898
1250.0625,1915
1250.8263,1921
1251.5900,1923
1252.3534,1945
1253.1167,1939
1253.8799,1934
1254.6429,1919
1255.4059,1941
1256.1687,1962
1256.9314,1953
1257.6938,1953
1258.4562,1965
1259.2184,1988
1259.9805,1955
1260.7424,1964
1261.5043,1986
1262.2660,1987
1263.0275,1990
1263.7888,2011
1264.5500,2004
1265.3112,2016
1266.0721,2020
1266.8330,2032
1267.5936,2038
1268.3542,2037
1269.1146,2064
1269.8749,2043
1270.6350,2031
1271.3950,2081
1272.1549,2092
1272.9147,2075
1273.6742,2109
1274.4336,2091
1275.1929,2079
1275.9520,2104
1276.7111,2111
1277.4700,2127
1278.2288,2118
1278.9873,2120
1279.7458,2168
1280.5042,2174
1281.2623,2139
1282.0204,2164
1282.7783,2130
1283.5360,2162
1284.2937,2172
1285.0511,2194
1285.8085,2183
1286.5657,2196
1287.3228,2200
1288.0797,2216
1288.8365,2214
1289.5931,2234
1290.3497,2221
1291.1061,2258
1291.8623,2252
1292.6184,2255
1293.3744,2263
1294.1302,2252
1294.8860,2273
1295.6415,2280
1296.3970,2269
1297.1522,2311
1297.9073,2314
1298.6624,2317
1299.4172,2298
1300.1719,2326
1300.9265,2340
1301.6809,2357
1302.4353,2348
1303.1895,2355
1303.9435,2364
1304.6974,2356
1305.4512,2360
1306.2047,2386
1306.9583,2419
1307.7115,2417
1308.4647,2423
1309.2179,2432
1309.9708,2453
1310.7235,2455
1311.4762,2465
1312.2288,2498
1312.9811,2481
1313.7334,2493
1314.4855,2513
1315.2374,2523
1315.9893,2541
1316.7410,2554
1317.4926,2580
1318.2439,2595
1318.9952,2646
1319.7463,2653
1320.4973,2681
1321.2482,2711
1321.9989,2764
1322.7495,2808
1323.5000,2867
1324.2502,2945
1325.0005,3111
1325.7505,3319
1326.5005,3715
1327.2502,4535
1327.9999,5906
1328.7493,7684
1329.4987,9445
1330.2479,10516
1330.9969,10367
1331.7460,8924
1332.4948,6850
1333.2434,5109
1333.9919,4053
1334.7404,3511
1335.4886,3243
1336.2367,3139
1336.9847,3053
1337.7325,3025
1338.4803,2971
1339.2279,2966
1339.9753,2955
1340.7227,2975
1341.4697,2972
1342.2168,2969
1342.9637,2963
1343.7104,2988
1344.4570,2982
1345.2036,3002
1345.9500,2979
1346.6962,3003
1347.4423,3023
1348.1881,3015
1348.9340,3035
1349.6796,3061
1350.4252,3095
1351.1705,3113
1351.9158,3097
1352.6609,3127
1353.4059,3119
1354.1508,3179
1354.8955,3196
1355.6400,3193
1356.3845,3204
1357.1288,3237
1357.8729,3262
1358.6169,3268
1359.3608,3273
1360.1046,3286
1360.8483,3336
1361.5917,3375
1362.3351,3379
1363.0782,3391
1363.8214,3377
1364.5643,3406
1365.3071,3444
1366.0498,3462
1366.7924,3475
1367.5348,3544
1368.2770,3537
1369.0192,3552
1369.7611,3575
1370.5031,3618
1371.2448,3631
1371.9863,3646
1372.7278,3670
1373.4691,3724
1374.2102,3738
1374.9513,3743
1375.6923,3758
1376.4330,3764
1377.1736,3858
1377.9141,3829
1378.6545,3880
1379.3948,3917
1380.1348,3928
1380.8748,3934
1381.6146,3983
1382.3542,4012
1383.0939,3986
1383.8333,4056
1384.5725,4089
1385.3118,4121
1386.0508,4135
1386.7897,4177
1387.5283,4216
1388.2670,4266
1389.0055,4242
1389.7438,4261
1390.4821,4317
1391.2201,4346
1391.9580,4377
1392.6958,4397
1393.4335,4418
1394.1710,4427
1394.9084,4450
1395.6456,4504
1396.3828,4500
1397.1198,4509
1397.8567,4554
1398.5934,4603
1399.3300,4644
1400.0664,4632
1400.8027,4669
1401.5389,4682
1402.2750,4680
1403.0109,4706
1403.7467,4716
1404.4823,4723
1405.2179,4762
1405.9532,4754
1406.6885,4811
1407.4236,4811
1408.1586,4819
1408.8934,4860
1409.6281,4888
1410.3627,4909
1411.0972,4901
1411.8314,4918
1412.5656,4927
1413.2997,4943
1414.0336,4962
1414.7673,4973
1415.5010,4956
1416.2345,4936
1416.9678,4990
1417.7010,5006
1418.4341,5009
1419.1671,4979
1419.8999,5024
1420.6327,5045
1421.3652,4991
1422.0977,5061
1422.8300,4978
1423.5621,5014
1424.2941,4996
1425.0260,5032
1425.7578,4988
1426.4894,5030
1427.2209,4987
1427.9523,5005
1428.6835,5022
1429.4146,4987
1430.1455,4979
1430.8763,4967
1431.6071,4969
1432.3376,4967
1433.0680,4935
1433.7983,4916
1434.5286,4907
1435.2585,4879
1435.9884,4928
1436.7181,4895
1437.4478,4824
1438.1772,4840
1438.9066,4872
1439.6359,4816
1440.3650,4846
1441.0940,4812
1441.8228,4762
1442.5515,4757
1443.2800,4775
1444.0084,4725
1444.7368,4695
1445.4650,4638
1446.1930,4650
1446.9209,4663
1447.6486,4629
1448.3762,4601
1449.1038,4567
1449.8311,4590
1450.5583,4540
1451.2854,4497
1452.0125,4519
1452.7393,4507
1453.4659,4493
1454.1925,4430
1454.9189,4420
1455.6453,4370
1456.3715,4376
1457.0974,4363
1457.8234,4344
1458.5492,4341
1459.2748,4313
1460.0002,4315
1460.7257,4253
1461.4509,4253
1462.1760,4210
1462.9010,4219
1463.6259,4186
1464.3506,4141
1465.0752,4151
1465.7996,4158
1466.5239,4102
1467.2482,4099
1467.9722,4084
1468.6960,4064
1469.4199,4088
1470.1436,4078
1470.8671,4021
1471.5905,4009
1472.3137,4001
1473.0369,3983
1473.7599,3936
1474.4827,3946
1475.2054,3921
1475.9281,3927
1476.6505,3880
1477.3729,3891
1478.0951,3867
1478.8171,3856
1479.5391,3857
1480.2609,3828
1480.9825,3823
1481.7041,3840
1482.4255,3775
1483.1469,3777
1483.8680,3736
1484.5890,3759
1485.3099,3746
1486.0306,3719
1486.7512,3742
1487.4718,3707
1488.1921,3709
1488.9124,3647
1489.6324,3676
1490.3524,3646
1491.0723,3641
1491.7920,3631
1492.5116,3603
1493.2310,3608
1493.9503,3631
1494.6696,3591
1495.3885,3582
1496.1074,3579
1496.8263,3562
1497.5449,3567
1498.2634,3551
1498.9818,3576
1499.7001,3510
1500.4182,3523
1501.1362,3493
1501.8541,3500
1502.5719,3510
1503.2894,3495
1504.0070,3484
1504.7242,3491
1505.4415,3471
1506.1586,3492
1506.8756,3460
1507.5924,3455
1508.3091,3477
1509.0256,3455
1509.7421,3439
1510.4584,3412
1511.1746,3429
1511.8906,3406
1512.6064,3415
1513.3223,3406
1514.0380,3386
1514.7534,3403
1515.4689,3426
1516.1841,3404
1516.8992,3366
1517.6143,3371
1518.3291,3357
1519.0438,3344
1519.7584,3362
1520.4729,3357
1521.1873,3357
1521.9015,3379
1522.6155,3349
1523.3295,3371
1524.0433,3358
1524.7570,3354
1525.4706,3314
1526.1840,3347
1526.8973,3345
1527.6105,3336
1528.3235,3325
1529.0365,3331
1529.7493,3315
1530.4619,3318
1531.1744,3300
1531.8868,3325
1532.5991,3301
1533.3112,3329
1534.0232,3311
1534.7351,3266
1535.4468,3285
1536.1584,3325
1536.8699,3314
1537.5813,3291
1538.2925,3317
1539.0035,3328
1539.7146,3315
1540.4254,3302
1541.1361,3319
1541.8467,3342
1542.5571,3296
1543.2675,3328
1543.9777,3296
1544.6877,3293
1545.3976,3315
1546.1074,3337
1546.8171,3306
1547.5266,3300
1548.2361,3312
1548.9453,3303
1549.6545,3266
1550.3635,3272
1551.0724,3269
1551.7811,3243
1552.4899,3280
1553.1984,3260
1553.9067,3273
1554.6150,3296
1555.3231,3239
1556.0310,3242
1556.7389,3240
1557.4467,3256
1558.1543,3244
1558.8617,3230
1559.5691,3223
1560.2762,3251
1560.9834,3268
1561.6903,3255
1562.3972,3249
1563.1039,3230
1563.8104,3247
1564.5168,3232
1565.2233,3201
1565.9294,3215
1566.6355,3212
1567.3414,3248
1568.0472,3231
1568.7528,3262
1569.4584,3221
1570.1638,3238
1570.8691,3217
1571.5742,3198
1572.2793,3224
1572.9843,3211
1573.6890,3210
1574.3937,3195
1575.0981,3179
1575.8025,3225
1576.5068,3198
1577.2109,3224
1577.9149,3221
1578.6188,3240
1579.3225,3228
1580.0261,3189
1580.7296,3221
1581.4330,3222
1582.1362,3230
1582.8394,3219
1583.5424,3246
1584.2451,3216
1584.9479,3210
1585.6505,3238
1586.3529,3259
1587.0553,3209
1587.7574,3254
1588.4596,3226
1589.1615,3229
1589.8634,3229
1590.5651,3259
1591.2666,3233
1591.9680,3245
1592.6693,3254
1593.3706,3233
1594.0717,3272
1594.7726,3227
1595.4734,3253
1596.1741,3225
1596.8745,3274
1597.5750,3263
1598.2753,3253
1598.9755,3281
1599.6754,3277
1600.3754,3273
1601.0752,3272
1601.7748,3278
1602.4744,3285
1603.1737,3276
1603.8730,3272
1604.5721,3271
1605.2712,3310
1605.9701,3299
1606.6688,3296
1607.3674,3297
1608.0659,3332
1608.7644,3305
1609.4626,3333
1610.1608,3294
1610.8588,3328
1611.5566,3294
1612.2544,3316
1612.9520,3317
1613.6494,3322
1614.3468,3314
1615.0441,3362
1615.7412,3368
1616.4381,3354
1617.1350,3393
1617.8318,3365
1618.5283,3350
1619.2249,3362
1619.9211,3341
1620.6174,3370
1621.3135,3352
1622.0094,3375
1622.7053,3379
1623.4010,3393
1624.0966,3378
1624.7920,3388
1625.4874,3399
1626.1826,3392
1626.8777,3376
1627.5726,3384
1628.2675,3405
1628.9622,3419
1629.6567,3428
1630.3512,3445
1631.0455,3419
1631.7397,3445
1632.4337,3393
1633.1277,3405
1633.8215,3428
1634.5153,3423
1635.2087,3452
1635.9022,3461
1636.5956,3445
1637.2887,3465
1637.9818,3476
1638.6747,3471
1639.3676,3487
1640.0602,3475
1640.7527,3453
1641.4452,3487
1642.1375,3465
1642.8296,3507
1643.5217,3468
1644.2136,3480
1644.9054,3486
1645.5970,3464
1646.2886,3516
1646.9801,3519
1647.6714,3470
1648.3625,3474
1649.0536,3500
1649.7445,3517
1650.4353,3500
1651.1260,3504
1651.8164,3492
1652.5068,3492
1653.1971,3512
1653.8873,3513
1654.5774,3510
1655.2672,3518
1655.9570,3558
1656.6467,3538
1657.3362,3514
1658.0256,3545
1658.7150,3517
1659.4041,3566
1660.0931,3534
1660.7820,3567
1661.4708,3566
1662.1594,3555
1662.8480,3544
1663.5364,3549
1664.2247,3580
1664.9128,3531
1665.6008,3587
1666.2887,3577
1666.9766,3573
1667.6642,3597
1668.3517,3585
1669.0391,3590
1669.7264,3577
1670.4136,3615
1671.1006,3628
1671.7875,3605
1672.4742,3585
1673.1609,3604
1673.8474,3596
1674.5338,3627
1675.2201,3599
1675.9063,3619
1676.5923,3599
1677.2782,3640
1677.9640,3645
1678.6497,3611
1679.3351,3634
1680.0205,3647
1680.7058,3650
1681.3910,3685
1682.0760,3668
1682.7609,3597
1683.4457,3640
1684.1304,3665
1684.8148,3670
1685.4993,3634
1686.1836,3671
1686.8677,3628
1687.5518,3685
1688.2356,3674
1688.9194,3675
1689.6030,3689
1690.2866,3721
1690.9700,3689
1691.6533,3713
1692.3364,3697
1693.0195,3687
1693.7024,3671
1694.3853,3657
1695.0679,3688
1695.7504,3700
1696.4329,3759
1697.1151,3729
1697.7972,3713
1698.4794,3737
1699.1613,3730
1699.8430,3731
1700.5247,3734
1701.2063,3734
1701.8877,3764
1702.5690,3740
1703.2501,3731
1703.9312,3743
1704.6121,3786
1705.2930,3751
1705.9736,3748
1706.6542,3756
1707.3346,3768
1708.0149,3775
1708.6951,3781
1709.3751,3796
1710.0551,3827
1710.7349,3815
1711.4146,3766
1712.0941,3794
1712.7736,3778
1713.4529,3830
1714.1321,3803
1714.8112,3790
1715.4901,3797
1716.1689,3807
1716.8477,3842
1717.5261,3832
1718.2046,3843
1718.8829,3797
1719.5612,3854
1720.2393,3820
1720.9172,3852
1721.5950,3853
1722.2727,3880
1722.9503,3847
1723.6278,3855
1724.3052,3918
1724.9823,3875
1725.6594,3899
1726.3364,3898
1727.0133,3901
1727.6899,3879
1728.3666,3915
1729.0431,3900
1729.7194,3890
1730.3956,3901
1731.0718,3893
1731.7477,3919
1732.4236,3884
1733.0994,3937
1733.7749,3928
1734.4504,3920
1735.1259,3962
1735.8010,3936
1736.4762,3931
1737.1512,3934
1737.8260,3938
1738.5009,3960
1739.1754,3972
1739.8500,3967
1740.5244,3966
1741.1986,3955
1741.8728,3967
1742.5468,3953
1743.2207,4003
1743.8944,3956
1744.5681,3941
1745.2417,3977
1745.9150,3972
1746.5884,3994
1747.2615,3986
1747.9346,4026
1748.6074,4007
1749.2803,3949
1749.9529,3998
1750.6255,4002
1751.2979,4039
1751.9702,4006
1752.6423,4022
1753.3145,4045
1753.9865,4023
1754.6582,4041
1755.3300,4020
1756.0015,4015
1756.6730,4067
1757.3442,4072
1758.0155,4059
1758.6865,4057
1759.3575,4029
1760.0283,4060
1760.6991,4025
1761.3696,4072
1762.0402,4062
1762.7104,4060
1763.3807,4061
1764.0508,4075
1764.7208,4079
1765.3906,4060
1766.0604,4055
1766.7300,4056
1767.3995,4056
1768.0688,4052
1768.7382,4057
1769.4072,4073
1770.0763,4072
1770.7451,4081
1771.4139,4081
1772.0825,4068
1772.7511,4112
1773.4196,4067
1774.0878,4047
1774.7560,4107
1775.4240,4079
1776.0919,4085
1776.7596,4089
1777.4274,4071
1778.0950,4072
1778.7623,4102
1779.4297,4098
1780.0968,4098
1780.7639,4083
1781.4308,4089
1782.0977,4072
1782.7644,4112
1783.4309,4064
1784.0974,4056
1784.7638,4082
1785.4299,4068
1786.0961,4046
1786.7621,4069
1787.4279,4059
1788.0936,4087
1788.7593,4077
1789.4247,4074
1790.0901,4102
1790.7554,4074
1791.4204,4060
1792.0854,4058
1792.7504,4098
1793.4152,4104
1794.0797,4090
1794.7443,4103
1795.4087,4103
1796.0730,4049
1796.7371,4091
1797.4011,4051
1798.0651,4090
1798.7289,4133
1799.3926,4076
1800.0560,4098
1800.7195,4092
1801.3828,4079
1802.0460,4071
1802.7091,4057
1803.3721,4114
1804.0349,4083
1804.6976,4077
1805.3602,4088
1806.0227,4091
1806.6849,4103
1807.3472,4045
1808.0093,4092
1808.6713,4076
1809.3331,4063
1809.9949,4094
1810.6566,4104
1811.3181,4066
1811.9795,4095
1812.6407,4072
1813.3019,4084
1813.9629,4097
1814.6238,4091
1815.2845,4085
1815.9452,4091
1816.6058,4086
1817.2662,4071
1817.9265,4075
1818.5867,4081
1819.2467,4071
1819.9067,4081
1820.5665,4051
1821.2262,4039
1821.8857,4057
1822.5453,4055
1823.2046,4097
1823.8638,4067
1824.5229,4077
1825.1819,4090
1825.8408,4079
1826.4995,4105
1827.1581,4062
1827.8167,4060
1828.4750,4077
1829.1333,4065
1829.7914,4090
1830.4495,4088
1831.1074,4107
1831.7651,4070
1832.4229,4041
1833.0803,4055
1833.7378,4107
1834.3951,4063
1835.0522,4070
1835.7094,4038
1836.3663,4079
1837.0231,4108
1837.6798,4068
1838.3364,4089
1838.9929,4068
1839.6493,4079
1840.3054,4051
1840.9615,4089
1841.6176,4084
1842.2734,4064
1842.9292,4054
1843.5848,4087
1844.2404,4062
1844.8958,4056
1845.5510,4066
1846.2062,4096
1846.8612,4068
1847.5161,4083
1848.1709,4110
1848.8256,4068
1849.4802,4078
1850.1346,4068
1850.7889,4074
1851.4431,4084
1852.0973,4083
1852.7512,4060
1853.4050,4032
1854.0588,4085
1854.7124,4071
1855.3658,4065
1856.0193,4085
1856.6725,4039
1857.3257,4062
1857.9786,4074
1858.6316,4065
1859.2843,4066
1859.9370,4080
1860.5895,4074
1861.2419,4056
1861.8943,4068
1862.5464,4049
1863.1985,4060
1863.8505,4070
1864.5023,4043
1865.1541,4054
1865.8055,4066
1866.4570,4082
1867.1084,4085
1867.7596,4043
1868.4108,4046
1869.0618,4091
1869.7126,4107
1870.3634,4082
1871.0140,4061
1871.6646,4041
1872.3149,4076
1872.9653,4035
1873.6155,4085
1874.2655,4051
1874.9154,4049
1875.5653,4035
1876.2150,4018
1876.8645,4048
1877.5140,4040
1878.1633,4021
1878.8125,4028
1879.4617,4030
1880.1106,4054
1880.7595,4007
1881.4083,4027
1882.0569,4005
1882.7054,4028
1883.3539,4007
1884.0021,3989
1884.6503,4004
1885.2983,4037
1885.9463,4035
1886.5940,3990
1887.2417,4009
1887.8893,4019
1888.5367,3986
1889.1841,4016
1889.8313,3996
1890.4784,4002
1891.1254,4052
1891.7723,4008
1892.4191,3998
1893.0657,3999
1893.7122,4017
1894.3585,4061
1895.0049,4005
1895.6510,3979
1896.2971,3992
1896.9430,4023
1897.5887,3960
1898.2345,4011
1898.8800,4020
1899.5255,3974
1900.1709,3973
1900.8160,3991
1901.4612,3967
1902.1062,3970
1902.7511,3998
1903.3958,3980
1904.0404,3978
1904.6849,3958
1905.3293,3999
1905.9736,3953
1906.6178,3955
1907.2618,3964
1907.9058,3955
1908.5496,3951
1909.1932,3974
1909.8369,3933
1910.4803,3982
1911.1237,3940
1911.7670,3939
1912.4100,3986
1913.0530,3982
1913.6959,3937
1914.3386,3927
1914.9813,3983
1915.6238,3950
1916.2662,3921
1916.9086,3935
1917.5507,3926
1918.1927,3958
1918.8347,3901
1919.4766,3991
1920.1183,3927
1920.7599,3958
1921.4014,3960
1922.0427,3974
1922.6840,3922
1923.3251,3941
1923.9661,3937
1924.6069,3922
1925.2477,3954
1925.8884,3934
1926.5289,3927
1927.1693,3896
1927.8097,3906
1928.4498,3963
1929.0900,3989
1929.7299,3909
1930.3698,3966
1931.0095,3928
1931.6490,3905
1932.2886,3934
1932.9280,3939
1933.5673,3927
1934.2064,3962
1934.8453,3924
1935.4843,3949
1936.1230,3941
1936.7618,3936
1937.4004,3926
1938.0388,3910
1938.6771,3977
1939.3153,3938
1939.9535,3923
1940.5914,3940
1941.2292,3873
1941.8671,3963
1942.5046,3959
1943.1422,3950
1943.7797,3949
1944.4169,3914
1945.0541,3955
1945.6912,3945
1946.3281,3928
1946.9648,3960
1947.6016,3922
1948.2382,3937
1948.8746,4003
1949.5110,3955
1950.1473,3991
1950.7834,3931
1951.4194,3979
1952.0553,3957
1952.6912,3929
1953.3268,3943
1953.9623,3964
1954.5978,3970
1955.2330,3949
1955.8683,3976
1956.5034,3959
1957.1383,3974
1957.7732,3959
1958.4080,4003
1959.0426,3993
1959.6771,3986
1960.3115,3973
1960.9458,3975
1961.5800,3986
1962.2140,3996
1962.8479,3980
1963.4817,4008
1964.1155,3968
1964.7490,3995
1965.3824,4021
1966.0159,4004
1966.6490,3952
1967.2822,4001
1967.9153,3987
1968.5481,3986
1969.1809,3975
1969.8136,4004
1970.4462,3988
1971.0786,3975
1971.7109,4033
1972.3431,3983
1972.9752,4004
1973.6072,3993
1974.2390,4028
1974.8707,4031
1975.5024,3993
1976.1339,4036
1976.7654,4016
1977.3966,4020
1978.0278,4007
1978.6588,3999
1979.2898,4019
1979.9207,4054
1980.5514,4046
1981.1819,4005
1981.8124,4031
1982.4427,4064
1983.0730,4041
1983.7031,4063
1984.3333,4048
1984.9631,4040
1985.5929,4068
1986.2225,4025
1986.8522,4044
1987.4816,4073
1988.1110,4036
1988.7401,4031
1989.3693,4081
1989.9983,4088
1990.6272,4044
1991.2559,4043
1991.8845,4076
1992.5131,4092
1993.1415,4063
1993.7698,4091
1994.3981,4041
1995.0261,4078
1995.6541,4095
1996.2819,4070
1996.9097,4079
1997.5372,4081
1998.1648,4099
1998.7921,4118
1999.4194,4075
2000.0466,4109
2000.6737,4057
2001.3005,4074
2001.9274,4079
2002.5541,4042
2003.1807,4085
2003.8073,4102
2004.4336,4056
2005.0598,4074
2005.6859,4085
2006.3120,4078
2006.9379,4121
2007.5637,4093
2008.1893,4075
2008.8149,4112
2009.4404,4097
2010.0657,4115
2010.6909,4079
2011.3160,4122
2011.9410,4120
2012.5659,4107
2013.1907,4081
2013.8154,4111
2014.4399,4091
2015.0643,4080
2015.6887,4072
2016.3129,4099
2016.9370,4109
2017.5609,4081
2018.1848,4156
2018.8086,4099
2019.4323,4081
2020.0557,4111
2020.6791,4098
2021.3024,4107
2021.9257,4122
2022.5487,4086
2023.1716,4110
2023.7944,4106
2024.4172,4095
2025.0398,4128
2025.6624,4102
2026.2847,4088
2026.9070,4149
2027.5292,4097
2028.1512,4128
2028.7731,4158
2029.3949,4126
2030.0166,4158
2030.6383,4140
2031.2598,4118
2031.8811,4135
2032.5023,4130
2033.1235,4134
2033.7445,4165
2034.3655,4127
2034.9862,4141
2035.6069,4117
2036.2275,4132
2036.8480,4141
2037.4684,4129
2038.0886,4121
2038.7087,4138
2039.3287,4119
2039.9486,4175
2040.5684,4132
2041.1881,4127
2041.8076,4136
2042.4271,4163
2043.0464,4148
2043.6656,4199
2044.2848,4126
2044.9038,4129
2045.5227,4135
2046.1415,4149
2046.7601,4199
2047.3787,4150
2047.9971,4170
2048.6155,4180
2049.2336,4125
2049.8518,4188
2050.4697,4184
2051.0876,4140
2051.7053,4200
2052.3230,4151
2052.9404,4149
2053.5579,4162
2054.1753,4170
2054.7925,4154
2055.4094,4203
2056.0266,4155
2056.6433,4188
2057.2600,4162
2057.8767,4194
2058.4932,4174
2059.1096,4201
2059.7261,4207
2060.3420,4171
2060.9583,4178
2061.5742,4248
2062.1899,4215
2062.8059,4176
2063.4214,4202
2064.0369,4176
2064.6523,4198
2065.2676,4218
2065.8828,4208
2066.4978,4196
2067.1128,4225
2067.7278,4182
2068.3423,4228
2068.9570,4200
2069.5715,4194
2070.1860,4193
2070.8003,4191
2071.4143,4195
2072.0283,4270
2072.6423,4186
2073.2561,4220
2073.8699,4225
2074.4836,4250
2075.0972,4265
2075.7104,4226
2076.3237,4238
2076.9368,4248
2077.5500,4252
2078.1628,4253
2078.7756,4216
2079.3884,4258
2080.0010,4272
2080.6135,4244
2081.2258,4225
2081.8381,4245
2082.4504,4260
2083.0625,4302
2083.6743,4272
2084.2861,4235
2084.8979,4279
2085.5095,4283
2086.1208,4269
2086.7324,4319
2087.3435,4235
2087.9548,4254
2088.5659,4311
2089.1768,4265
2089.7876,4296
2090.3982,4320
2091.0088,4299
2091.6194,4324
2092.2297,4305
2092.8401,4288
2093.4502,4293
2094.0603,4333
2094.6702,4344
2095.2800,4331
2095.8896,4303
2096.4993,4316
2097.1089,4312
2097.7183,4312
2098.3274,4321
2098.9365,4324
2099.5457,4326
2100.1545,4333
2100.7634,4292
2101.3721,4356
2101.9807,4321
2102.5894,4336
2103.1975,4352
2103.8059,4357
2104.4141,4373
2105.0222,4337
2105.6301,4334
2106.2378,4343
2106.8457,4324
2107.4531,4355
2108.0608,4356
2108.6680,4372
2109.2754,4365
2109.8826,4385
2110.4895,4354
2111.0964,4365
2111.7034,4361
2112.3101,4335
2112.9167,4310
2113.5232,4392
2114.1296,4339
2114.7358,4370
2115.3420,4365
2115.9480,4326
2116.5540,4365
2117.1599,4344
2117.7656,4373
2118.3711,4376
2118.9768,4367
2119.5820,4361
2120.1875,4364
2120.7925,4362
2121.3977,4380
2122.0027,4373
2122.6074,4364
2123.2122,4392
2123.8169,4385
2124.4214,4367
2125.0256,4377
2125.6299,4342
2126.2341,4390
2126.8384,4395
2127.4421,4375
2128.0461,4403
2128.6499,4346
2129.2534,4347
2129.8569,4402
2130.4604,4406
2131.0637,4341
2131.6670,4378
2132.2700,4349
2132.8730,4400
2133.4758,4346
2134.0786,4371
2134.6812,4393
2135.2837,4349
2135.8862,4382
2136.4121,4347.28
2137.0735,4390.28
2137.7349,4342.28
2138.3960,4401.28
2139.0569,4406.28
2139.7178,4378.28
2140.3784,4368.28
2141.0391,4365.28
2141.6997,4375.28
2142.3601,4412.28
2143.0203,4381.28
2143.6804,4377.28
2144.3403,4402.28
2145.0002,4414.28
2145.6602,4399.28
2146.3198,4408.28
2146.9792,4406.28
2147.6387,4425.28
2148.2979,4381.28
2148.9570,4389.28
2149.6162,4411.28
2150.2751,4404.28
2150.9338,4409.28
2151.5925,4396.28
2152.2512,4423.28
2152.9097,4389.28
2153.5679,4402.28
2154.2261,4414.28
2154.8840,4440.28
2155.5420,4397.28
2156.2000,4380.28
2156.8577,4405.28
2157.5151,4421.28
2158.1726,4421.28
2158.8301,4400.28
2159.4873,4397.28
2160.1443,4419.28
2160.8013,4379.28
2161.4580,4394.28
2162.1147,4378.28
2162.7715,4433.28
2163.4280,4384.28
2164.0842,4393.28
2164.7405,4397.28
2165.3967,4424.28
2166.0527,4417.28
2166.7085,4444.28
2167.3643,4396.28
2168.0200,4367.28
2168.6755,4395.28
2169.3308,4388.28
2169.9861,4376.28
2170.6414,4396.28
2171.2964,4423.28
2171.9512,4384.28
2172.6060,4392.28
2173.2607,4461.28
2173.9153,4375.28
2174.5698,4353.28
2175.2241,4417.28
2175.8782,4390.28
2176.5322,4400.28
2177.1863,4414.28
2177.8401,4410.28
2178.4939,4411.28
2179.1475,4371.28
2179.8008,4398.28
2180.4541,4378.28
2181.1074,4455.28
2181.7605,4397.28
2182.4136,4434.28
2183.0664,4407.28
2183.7190,4431.28
2184.3716,4411.28
2185.0242,4397.28
2185.6765,4353.28
2186.3289,4372.28
2186.9810,4414.28
2187.6331,4415.28
2188.2849,4384.28
2188.9368,4382.28
2189.5884,4387.28
2190.2397,4416.28
2190.8914,4404.28
2191.5425,4430.28
2192.1938,4464.28
2192.8447,4424.28
2193.4956,4387.28
2194.1465,4416.28
2194.7971,4435.28
2195.4478,4415.28
2196.0981,4372.28
2196.7485,4413.28
2197.3987,4423.28
2198.0488,4402.28
2198.6990,4421.28
2199.3486,4411.28
2199.9985,4370.28
2200.6479,4406.28
2201.2976,4386.28
2201.9470,4427.28
2202.5962,4376.28
2203.2454,4421.28
2203.8943,4433.28
2204.5432,4391.28
2205.1919,4434.28
2205.8406,4401.28
2206.4893,4449.28
2207.1377,4394.28
2207.7859,4391.28
2208.4341,4374.28
2209.0820,4384.28
2209.7300,4460.28
2210.3779,4381.28
2211.0256,4403.28
2211.6731,4433.28
2212.3206,4415.28
2212.9680,4436.28
2213.6152,4435.28
2214.2622,4381.28
2214.9092,4430.28
2215.5562,4402.28
2216.2029,4379.28
2216.8494,4416.28
2217.4958,4429.28
2218.1423,4437.28
2218.7886,4403.28
2219.4348,4413.28
2220.0808,4382.28
2220.7266,4427.28
2221.3723,4369.28
2222.0181,4413.28
2222.6636,4457.28
2223.3091,4372.28
2223.9543,4357.28
2224.5996,4382.28
2225.2446,4392.28
2225.8896,4399.28
2226.5344,4421.28
2227.1792,4410.28
2227.8237,4363.28
2228.4683,4445.28
2229.1125,4450.28
2229.7568,4343.28
2230.4009,4407.28
2231.0449,4439.28
2231.6887,4402.28
2232.3325,4426.28
2232.9761,4343.28
2233.6196,4406.28
2234.2629,4437.28
2234.9063,4399.28
2235.5496,4389.28
2236.1926,4372.28
2236.8354,4422.28
2237.4783,4402.28
2238.1208,4387.28
2238.7634,4381.28
2239.4060,4424.28
2240.0483,4464.28
2240.6904,4374.28
2241.3325,4354.28
2241.9746,4415.28
2242.6165,4387.28
2243.2583,4425.28
2243.8999,4379.28
2244.5413,4387.28
2245.1826,4402.28
2245.8240,4386.28
2246.4651,4416.28
2247.1062,4368.28
2247.7471,4435.28
2248.3879,4389.28
2249.0286,4375.28
2249.6692,4379.28
2250.3096,4405.28
2250.9497,4391.28
2251.5901,4387.28
2252.2302,4377.28
2252.8701,4373.28
2253.5100,4434.28
2254.1497,4410.28
2254.7893,4370.28
2255.4287,4381.28
2256.0681,4406.28
2256.7073,4450.28
2257.3464,4377.28
2257.9856,4391.28
2258.6245,4398.28
2259.2632,4397.28
2259.9019,4367.28
2260.5405,4407.28
2261.1790,4376.28
2261.8171,4380.28
2262.4553,4365.28
2263.0935,4364.28
2263.7314,4350.28
2264.3691,4395.28
2265.0068,4368.28
2265.6445,4376.28
2266.2820,4360.28
2266.9194,4379.28
2267.5566,4357.28
2268.1938,4359.28
2268.8308,4385.28
2269.4678,4375.28
2270.1045,4327.28
2270.7412,4329.28
2271.3777,4384.28
2272.0142,4360.28
2272.6504,4402.28
2273.2866,4368.28
2273.9226,4362.28
2274.5586,4382.28
2275.1946,4363.28
2275.8301,4357.28
2276.4658,4334.28
2277.1013,4392.28
2277.7366,4318.28
2278.3718,4402.28
2279.0071,4349.28
2279.6421,4328.28
2280.2769,4390.28
2280.9116,4384.28
2281.5464,4392.28
2282.1809,4301.28
2282.8154,4345.28
2283.4497,4350.28
2284.0840,4382.28
2284.7180,4325.28
2285.3518,4326.28
2285.9858,4348.28
2286.6194,4341.28
2287.2532,4353.28
2287.8865,4356.28
2288.5200,4362.28
2289.1533,4330.28
2289.7864,4353.28
2290.4194,4372.28
2291.0522,4328.28
2291.6851,4346.28
2292.3179,4339.28
2292.9504,4336.28
2293.5828,4318.28
2294.2151,4354.28
2294.8474,4347.28
2295.4795,4346.28
2296.1113,4338.28
2296.7432,4331.28
2297.3750,4352.28
2298.0066,4360.28
2298.6382,4363.28
2299.2695,4292.28
2299.9006,4327.28
2300.5320,4383.28
2301.1628,4354.28
2301.7939,4349.28
2302.4246,4364.28
2303.0554,4348.28
2303.6860,4349.28
2304.3164,4336.28
2304.9468,4346.28
2305.5769,4355.28
2306.2070,4381.28
2306.8372,4349.28
2307.4670,4317.28
2308.0967,4309.28
2308.7263,4397.28
2309.3560,4350.28
2309.9854,4282.28
2310.6145,4338.28
2311.2437,4360.28
2311.8728,4337.28
2312.5017,4353.28
2313.1306,4358.28
2313.7593,4337.28
2314.3879,4346.28
2315.0164,4346.28
2315.6448,4344.28
2316.2729,4326.28
2316.9011,4376.28
2317.5291,4346.28
2318.1570,4380.28
2318.7847,4363.28
2319.4124,4345.28
2320.0400,4341.28
2320.6675,4346.28
2321.2947,4324.28
2321.9219,4365.28
2322.5491,4351.28
2323.1760,4331.28
2323.8030,4350.28
2324.4297,4330.28
2325.0562,4334.28
2325.6829,4349.28
2326.3091,4349.28
2326.9353,4332.28
2327.5615,4397.28
2328.1877,4315.28
2328.8135,4313.28
2329.4395,4335.28
2330.0652,4354.28
2330.6907,4330.28
2331.3162,4382.28
2331.9414,4334.28
2332.5667,4400.28
2333.1919,4360.28
2333.8169,4356.28
2334.4417,4352.28
2335.0664,4317.28
2335.6912,4352.28
2336.3157,4362.28
2336.9402,4367.28
2337.5645,4319.28
2338.1887,4408.28
2338.8127,4395.28
2339.4368,4347.28
2340.0605,4347.28
2340.6843,4336.28
2341.3079,4378.28
2341.9314,4392.28
2342.5547,4383.28
2343.1780,4380.28
2343.8013,4368.28
2344.4243,4369.28
2345.0471,4371.28
2345.6699,4346.28
2346.2927,4369.28
2346.9153,4396.28
2347.5378,4381.28
2348.1602,4341.28
2348.7822,4354.28
2349.4045,4385.28
2350.0264,4340.28
2350.6484,4375.28
2351.2703,4345.28
2351.8918,4396.28
2352.5134,4361.28
2353.1348,4356.28
2353.7561,4386.28
2354.3772,4366.28
2354.9983,4345.28
2355.6194,4370.28
2356.2402,4397.28
2356.8611,4377.28
2357.4817,4382.28
2358.1021,4403.28
2358.7224,4393.28
2359.3428,4371.28
2359.9629,4395.28
2360.5830,4378.28
2361.2029,4383.28
2361.8228,4378.28
2362.4426,4372.28
2363.0620,4363.28
2363.6816,4350.28
2364.3010,4341.28
2364.9202,4374.28
2365.5393,4379.28
2366.1584,4339.28
2366.7773,4381.28
2367.3960,4376.28
2368.0149,4427.28
2368.6333,4417.28
2369.2517,4395.28
2369.8701,4375.28
2370.4883,4348.28
2371.1064,4415.28
2371.7246,4389.28
2372.3423,4416.28
2372.9602,4361.28
2373.5779,4369.28
2374.1953,4367.28
2374.8127,4371.28
2375.4302,4402.28
2376.0474,4383.28
2376.6643,4361.28
2377.2813,4413.28
2377.8982,4380.28
2378.5149,4400.28
2379.1316,4368.28
2379.7480,4425.28
2380.3645,4368.28
2380.9807,4405.28
2381.5969,4362.28
2382.2129,4359.28
2382.8289,4340.28
2383.4448,4422.28
2384.0605,4375.28
2384.6760,4363.28
2385.2915,4383.28
2385.9070,4384.28
2386.5222,4387.28
2387.1375,4382.28
2387.7524,4381.28
2388.3672,4382.28
2388.9822,4441.28
2389.5969,4410.28
2390.2114,4362.28
2390.8259,4366.28
2391.4402,4358.28
2392.0544,4378.28
2392.6685,4415.28
2393.2825,4397.28
2393.8965,4383.28
2394.5103,4415.28
2395.1240,4373.28
2395.7375,4439.28
2396.3508,4394.28
2396.9644,4404.28
2397.5774,4358.28
2398.1907,4382.28
2398.8035,4417.28
2399.4165,4364.28
2400.0293,4414.28
2400.6418,4335.28
2401.2544,4362.28
2401.8669,4380.28
2402.4792,4400.28
2403.0913,4382.28
2403.7034,4387.28
2404.3154,4369.28
2404.9272,4376.28
2405.5391,4350.28
2406.1506,4369.28
2406.7622,4385.28
2407.3735,4369.28
2407.9849,4399.28
2408.5959,4385.28
2409.2070,4372.28
2409.8181,4420.28
2410.4290,4387.28
2411.0396,4411.28
2411.6501,4398.28
2412.2607,4375.28
2412.8711,4392.28
2413.4814,4362.28
2414.0916,4392.28
2414.7017,4413.28
2415.3115,4363.28
2415.9214,4357.28
2416.5310,4412.28
2417.1406,4366.28
2417.7502,4376.28
2418.3596,4376.28
2418.9688,4397.28
2419.5779,4423.28
2420.1870,4408.28
2420.7959,4384.28
2421.4048,4368.28
2422.0134,4424.28
2422.6221,4374.28
2423.2305,4438.28
2423.8389,4418.28
2424.4470,4397.28
2425.0552,4411.28
2425.6633,4361.28
2426.2712,4412.28
2426.8789,4446.28
2427.4866,4403.28
2428.0942,4371.28
2428.7017,4383.28
2429.3091,4403.28
2429.9163,4441.28
2430.5234,4401.28
2431.1304,4375.28
2431.7373,4377.28
2432.3440,4399.28
2432.9507,4432.28
2433.5574,4406.28
2434.1638,4427.28
2434.7700,4378.28
2435.3762,4407.28
2435.9824,4427.28
2436.5884,4454.28
2437.1943,4393.28
2437.8000,4416.28
2438.4058,4424.28
2439.0112,4408.28
2439.6167,4424.28
2440.2222,4388.28
2440.8274,4455.28
2441.4324,4408.28
2442.0374,4396.28
2442.6423,4443.28
2443.2471,4415.28
2443.8518,4418.28
2444.4563,4428.28
2445.0608,4390.28
2445.6650,4426.28
2446.2693,4392.28
2446.8733,4441.28
2447.4773,4440.28
2448.0811,4406.28
2448.6851,4450.28
2449.2886,4376.28
2449.8921,4423.28
2450.4956,4450.28
2451.0989,4427.28
2451.7021,4434.28
2452.3052,4413.28
2452.9082,4418.28
2453.5110,4462.28
2454.1138,4456.28
2454.7166,4417.28
2455.3188,4453.28
2455.9214,4414.28
2456.5237,4449.28
2457.1260,4482.28
2457.7280,4456.28
2458.3301,4441.28
2458.9319,4477.28
2459.5337,4473.28
2460.1353,4429.28
2460.7368,4453.28
2461.3381,4465.28
2461.9395,4481.28
2462.5408,4473.28
2463.1418,4473.28
2463.7427,4471.28
2464.3438,4472.28
2464.9443,4473.28
2465.5449,4475.28
2466.1455,4459.28
2466.7461,4438.28
2467.3462,4475.28
2467.9465,4451.28
2468.5466,4487.28
2469.1465,4488.28
2469.7463,4450.28
2470.3462,4454.28
2470.9458,4452.28
2471.5454,4442.28
2472.1448,4464.28
2472.7441,4445.28
2473.3433,4457.28
2473.9424,4510.28
2474.5413,4502.28
2475.1401,4473.28
2475.7390,4481.28
2476.3376,4473.28
2476.9363,4477.28
2477.5347,4489.28
2478.1328,4501.28
2478.7312,4476.28
2479.3291,4481.28
2479.9272,4470.28
2480.5251,4481.28
2481.1228,4472.28
2481.7205,4470.28
2482.3181,4466.28
2482.9155,4471.28
2483.5127,4500.28
2484.1099,4495.28
2484.7070,4480.28
2485.3040,4471.28
2485.9009,4486.28
2486.4976,4437.28
2487.0942,4505.28
2487.6909,4475.28
2488.2874,4487.28
2488.8835,4472.28
2489.4797,4480.28
2490.0759,4477.28
2490.6719,4475.28
2491.2678,4521.28
2491.8635,4465.28
2492.4592,4477.28
2493.0547,4486.28
2493.6501,4465.28
2494.2456,4461.28
2494.8408,4494.28
2495.4358,4485.28
2496.0310,4510.28
2496.6257,4524.28
2497.2205,4457.28
2497.8152,4513.28
2498.4099,4500.28
2499.0042,4507.28
2499.5986,4476.28
2500.1929,4528.28
2500.7869,4501.28
2501.3809,4514.28
2501.9749,4514.28
2502.5686,4481.28
2503.1624,4523.28
2503.7559,4510.28
2504.3494,4485.28
2504.9426,4441.28
2505.5359,4516.28
2506.1292,4509.28
2506.7222,4470.28
2507.3149,4515.28
2507.9077,4499.28
2508.5005,4512.28
2509.0930,4488.28
2509.6855,4494.28
2510.2778,4512.28
2510.8701,4487.28
2511.4624,4544.28
2512.0544,4509.28
2512.6462,4524.28
2513.2380,4479.28
2513.8298,4482.28
2514.4214,4472.28
2515.0129,4516.28
2515.6042,4491.28
2516.1956,4521.28
2516.7866,4501.28
2517.3777,4477.28
2517.9688,4476.28
2518.5596,4528.28
2519.1501,4489.28
2519.7407,4479.28
2520.3313,4529.28
2520.9216,4482.28
2521.5120,4573.28
2522.1021,4488.28
2522.6921,4516.28
2523.2822,4482.28
2523.8721,4548.28
2524.4617,4486.28
2525.0513,4526.28
2525.6409,4482.28
2526.2302,4478.28
2526.8196,4520.28
2527.4087,4534.28
2527.9978,4534.28
2528.5869,4512.28
2529.1758,4507.28
2529.7644,4462.28
2530.3530,4519.28
2530.9417,4534.28
2531.5300,4513.28
2532.1184,4497.28
2532.7065,4449.28
2533.2947,4521.28
2533.8826,4511.28
2534.4705,4516.28
2535.0583,4510.28
2535.6460,4530.28
2536.2336,4509.28
2536.8210,4513.28
2537.4082,4469.28
2537.9956,4532.28
2538.5828,4526.28
2539.1697,4526.28
2539.7566,4529.28
2540.3433,4542.28
2540.9299,4509.28
2541.5166,4561.28
2542.1030,4553.28
2542.6895,4513.28
2543.2756,4499.28
2543.8618,4504.28
2544.4478,4556.28
2545.0337,4575.28
2545.6196,4540.28
2546.2053,4569.28
2546.7910,4576.28
2547.3765,4502.28
2547.9617,4553.28
2548.5471,4557.28
2549.1323,4543.28
2549.7173,4541.28
2550.3022,4541.28
2550.8870,4499.28
2551.4717,4564.28
2552.0564,4536.28
2552.6409,4530.28
2553.2253,4555.28
2553.8096,4551.28
2554.3938,4541.28
2554.9778,4539.28
2555.5618,4571.28
2556.1458,4560.28
2556.7295,4577.28
2557.3132,4546.28
2557.8967,4596.28
2558.4800,4570.28
2559.0635,4553.28
2559.6467,4575.28
2560.2297,4557.28
2560.8127,4553.28
2561.3955,4560.28
2561.9785,4621.28
2562.5610,4591.28
2563.1436,4563.28
2563.7261,4591.28
2564.3083,4602.28
2564.8906,4597.28
2565.4729,4573.28
2566.0549,4595.28
2566.6367,4580.28
2567.2185,4624.28
2567.8003,4579.28
2568.3818,4614.28
2568.9634,4605.28
2569.5447,4619.28
2570.1260,4583.28
2570.7073,4621.28
2571.2883,4619.28
2571.8691,4637.28
2572.4500,4547.28
2573.0308,4618.28
2573.6113,4566.28
2574.1919,4629.28
2574.7722,4620.28
2575.3525,4614.28
2575.9329,4642.28
2576.5129,4603.28
2577.0930,4658.28
2577.6729,4602.28
2578.2524,4658.28
2578.8323,4620.28
2579.4119,4642.28
2579.9912,4667.28
2580.5706,4620.28
2581.1497,4602.28
2581.7288,4634.28
2582.3079,4669.28
2582.8867,4632.28
2583.4656,4678.28
2584.0442,4641.28
2584.6228,4624.28
2585.2014,4645.28
2585.7798,4645.28
2586.3579,4681.28
2586.9360,4675.28
2587.5142,4647.28
2588.0920,4667.28
2588.6699,4670.28
2589.2478,4658.28
2589.8252,4700.28
2590.4028,4700.28
2590.9802,4687.28
2591.5576,4677.28
2592.1348,4656.28
2592.7117,4657.28
2593.2888,4689.28
2593.8657,4700.28
2594.4424,4675.28
2595.0190,4723.28
2595.5957,4658.28
2596.1721,4652.28
2596.7483,4708.28
2597.3247,4699.28
2597.9006,4613.28
2598.4768,4662.28
2599.0527,4656.28
2599.6284,4679.28
2600.2041,4696.28
2600.7798,4710.28
2601.3552,4661.28
2601.9307,4706.28
2602.5059,4755.28
2603.0811,4709.28
2603.6560,4694.28
2604.2310,4715.28
2604.8059,4689.28
2605.3806,4694.28
2605.9553,4684.28
2606.5298,4707.28
2607.1042,4696.28
2607.6785,4735.28
2608.2527,4720.28
2608.8267,4709.28
2609.4006,4707.28
2609.9746,4692.28
2610.5483,4748.28
2611.1221,4724.28
2611.6956,4726.28
2612.2690,4741.28
2612.8425,4732.28
2613.4158,4767.28
2613.9888,4718.28
2614.5618,4744.28
2615.1348,4763.28
2615.7075,4728.28
2616.2803,4808.28
2616.8528,4802.28
2617.4253,4750.28
2617.9978,4772.28
2618.5701,4753.28
2619.1423,4739.28
2619.7144,4733.28
2620.2864,4750.28
2620.8582,4762.28
2621.4299,4758.28
2622.0015,4752.28
2622.5730,4779.28
2623.1445,4769.28
2623.7158,4757.28
2624.2871,4766.28
2624.8582,4779.28
2625.4292,4787.28
2626.0002,4745.28
2626.5710,4765.28
2627.1416,4776.28
2627.7122,4732.28
2628.2827,4803.28
2628.8530,4787.28
2629.4233,4742.28
2629.9934,4811.28
2630.5635,4747.28
2631.1335,4716.28
2631.7034,4761.28
2632.2732,4790.28
2632.8428,4776.28
2633.4124,4788.28
2633.9817,4763.28
2634.5510,4788.28
2635.1201,4800.28
2635.6895,4800.28
2636.2583,4759.28
2636.8271,4800.28
2637.3960,4802.28
2637.9646,4796.28
2638.5332,4749.28
2639.1018,4802.28
2639.6702,4792.28
2640.2383,4818.28
2640.8066,4765.28
2641.3745,4793.28
2641.9426,4822.28
2642.5105,4770.28
2643.0781,4781.28
2643.6458,4833.28
2644.2134,4761.28
2644.7808,4805.28
2645.3479,4840.28
2645.9153,4774.28
2646.4824,4774.28
2647.0493,4857.28
2647.6162,4789.28
2648.1831,4848.28
2648.7498,4808.28
2649.3162,4782.28
2649.8828,4796.28
2650.4492,4834.28
2651.0154,4837.28
2651.5815,4793.28
2652.1475,4820.28
2652.7136,4803.28
2653.2793,4808.28
2653.8452,4828.28
2654.4106,4785.28
2654.9763,4868.28
2655.5417,4819.28
2656.1069,4761.28
2656.6721,4824.28
2657.2373,4831.28
2657.8022,4847.28
2658.3672,4846.28
2658.9319,4802.28
2659.4966,4806.28
2660.0613,4824.28
2660.6257,4759.28
2661.1902,4809.28
2661.7544,4871.28
2662.3186,4874.28
2662.8826,4828.28
2663.4465,4880.28
2664.0105,4832.28
2664.5742,4858.28
2665.1377,4882.28
2665.7014,4834.28
2666.2646,4862.28
2666.8281,4865.28
2667.3914,4835.28
2667.9543,4838.28
2668.5173,4839.28
2669.0803,4839.28
2669.6431,4856.28
2670.2058,4849.28
2670.7683,4837.28
2671.3308,4870.28
2671.8933,4848.28
2672.4556,4824.28
2673.0178,4870.28
2673.5798,4816.28
2674.1418,4762.28
2674.7036,4822.28
2675.2654,4846.28
2675.8269,4814.28
2676.3887,4781.28
2676.9500,4877.28
2677.5112,4826.28
2678.0725,4833.28
2678.6338,4836.28
2679.1948,4807.28
2679.7556,4878.28
2680.3164,4899.28
2680.8772,4805.28
2681.4377,4848.28
2681.9983,4823.28
2682.5586,4847.28
2683.1189,4848.28
2683.6792,4821.28
2684.2393,4867.28
2684.7993,4880.28
2685.3591,4851.28
2685.9189,4814.28
2686.4785,4852.28
2687.0381,4885.28
2687.5977,4824.28
2688.1570,4812.28
2688.7163,4863.28
2689.2754,4820.28
2689.8345,4863.28
2690.3933,4879.28
2690.9521,4871.28
2691.5110,4868.28
2692.0696,4859.28
2692.6282,4858.28
2693.1865,4874.28
2693.7449,4878.28
2694.3030,4869.28
2694.8611,4872.28
2695.4192,4855.28
2695.9771,4843.28
2696.5349,4851.28
2697.0925,4865.28
2697.6501,4863.28
2698.2075,4812.28
2698.7651,4933.28
2699.3223,4832.28
2699.8794,4898.28
2700.4365,4828.28
2700.9934,4858.28
2701.5503,4865.28
2702.1072,4859.28
2702.6638,4853.28
2703.2205,4867.28
2703.7769,4871.28
2704.3333,4877.28
2704.8894,4873.28
2705.4456,4879.28
2706.0017,4804.28
2706.5576,4858.28
2707.1133,4868.28
2707.6692,4847.28
2708.2246,4908.28
2708.7803,4884.28
2709.3357,4882.28
2709.8909,4920.28
2710.4463,4883.28
2711.0012,4866.28
2711.5564,4860.28
2712.1113,4890.28
2712.6660,4861.28
2713.2207,4877.28
2713.7754,4852.28
2714.3298,4870.28
2714.8843,4890.28
2715.4385,4867.28
2715.9927,4835.28
2716.5466,4849.28
2717.1006,4873.28
2717.6545,4813.28
2718.2083,4870.28
2718.7620,4892.28
2719.3157,4829.28
2719.8691,4857.28
2720.4224,4909.28
2720.9756,4808.28
2721.5288,4874.28
2722.0818,4883.28
2722.6348,4848.28
2723.1875,4888.28
2723.7402,4903.28
2724.2930,4823.28
2724.8455,4869.28
2725.3979,4878.28
2725.9502,4827.28
2726.5024,4881.28
2727.0547,4899.28
2727.6067,4856.28
2728.1584,4881.28
2728.7104,4823.28
2729.2620,4857.28
2729.8137,4867.28
2730.3652,4874.28
2730.9165,4858.28
2731.4678,4903.28
2732.0190,4883.28
2732.5701,4820.28
2733.1211,4900.28
2733.6721,4863.28
2734.2229,4845.28
2734.7734,4849.28
2735.3242,4873.28
2735.8745,4838.28
2736.4250,4882.28
2736.9753,4905.28
2737.5254,4855.28
2738.0754,4865.28
2738.6255,4868.28
2739.1753,4833.28
2739.7251,4850.28
2740.2747,4853.28
2740.8242,4829.28
2741.3738,4901.28
2741.9231,4869.28
2742.4724,4784.28
2743.0215,4833.28
2743.5706,4864.28
2744.1194,4833.28
2744.6682,4832.28
2745.2170,4825.28
2745.7656,4796.28
2746.3142,4845.28
2746.8625,4909.28
2747.4109,4870.28
2747.9592,4883.28
2748.5073,4874.28
2749.0554,4825.28
2749.6033,4838.28
2750.1511,4866.28
2750.6987,4801.28
2751.2463,4836.28
2751.7939,4863.28
2752.3413,4826.28
2752.8887,4867.28
2753.4358,4880.28
2753.9829,4836.28
2754.5300,4825.28
2755.0769,4879.28
2755.6238,4821.28
2756.1704,4852.28
2756.7170,4854.28
2757.2634,4793.28
2757.8098,4839.28
2758.3562,4862.28
2758.9023,4806.28
2759.4485,4808.28
2759.9944,4860.28
2760.5403,4799.28
2761.0862,4798.28
2761.6318,4842.28
2762.1772,4858.28
2762.7229,4855.28
2763.2683,4878.28
2763.8135,4780.28
2764.3586,4801.28
2764.9038,4909.28
2765.4487,4826.28
2765.9937,4810.28
2766.5383,4835.28
2767.0830,4857.28
2767.6274,4758.28
2768.1721,4858.28
2768.7163,4819.28
2769.2607,4813.28
2769.8047,4820.28
2770.3489,4808.28
2770.8928,4830.28
2771.4365,4828.28
2771.9805,4841.28
2772.5239,4744.28
2773.0676,4823.28
2773.6111,4782.28
2774.1543,4781.28
2774.6975,4817.28
2775.2407,4818.28
2775.7837,4781.28
2776.3267,4856.28
2776.8696,4884.28
2777.4124,4776.28
2777.9551,4852.28
2778.4976,4879.28
2779.0400,4760.28
2779.5823,4820.28
2780.1245,4821.28
2780.6665,4831.28
2781.2087,4841.28
2781.7505,4823.28
2782.2925,4822.28
2782.8342,4871.28
2783.3757,4824.28
2783.9172,4820.28
2784.4587,4816.28
2785.0000,4803.28
2785.5413,4812.28
2786.0823,4836.28
2786.6233,4847.28
2787.1643,4782.28
2787.7051,4820.28
2788.2458,4828.28
2788.7864,4788.28
2789.3269,4835.28
2789.8674,4799.28
2790.4077,4763.28
2790.9480,4790.28
2791.4880,4850.28
2792.0281,4795.28
2792.5679,4815.28
2793.1077,4818.28
2793.6475,4785.28
2794.1870,4775.28
2794.7266,4854.28
2795.2659,4836.28
2795.8052,4769.28
2796.3445,4819.28
2796.8835,4844.28
2797.4226,4787.28
2797.9614,4837.28
2798.5002,4828.28
2799.0391,4779.28
2799.5776,4788.28
2800.1162,4785.28
2800.6545,4806.28
2801.1929,4842.28
2801.7310,4886.28
2802.2690,4828.28
2802.8071,4869.28
2803.3450,4855.28
2803.8828,4824.28
2804.4204,4851.28
2804.9580,4863.28
2805.4956,4786.28
2806.0330,4871.28
2806.5703,4846.28
2807.1074,4821.28
2807.6445,4855.28
2808.1816,4875.28
2808.7185,4830.28
2809.2554,4863.28
2809.7920,4823.28
2810.3286,4783.28
2810.8650,4847.28
2811.4014,4901.28
2811.9377,4887.28
2812.4739,4845.28
2813.0100,4867.28
2813.5461,4842.28
2814.0820,4863.28
2814.6177,4877.28
2815.1533,4825.28
2815.6890,4844.28
2816.2246,4883.28
2816.7600,4869.28
2817.2952,4844.28
2817.8303,4875.28
2818.3655,4886.28
2818.9004,4818.28
2819.4353,4919.28
2819.9702,4878.28
2820.5049,4850.28
2821.0396,4909.28
2821.5740,4885.28
2822.1084,4828.28
2822.6426,4870.28
2823.1768,4895.28
2823.7109,4866.28
2824.2449,4898.28
2824.7788,4909.28
2825.3125,4849.28
2825.8462,4881.28
2826.3799,4949.28
2826.9133,4837.28
2827.4468,4904.28
2827.9800,4937.28
2828.5132,4830.28
2829.0464,4869.28
2829.5793,4863.28
2830.1123,4900.28
2830.6450,4888.28
2831.1777,4947.28
2831.7104,4881.28
2832.2429,4853.28
2832.7754,4901.28
2833.3076,4893.28
2833.8398,4872.28
2834.3718,4948.28
2834.9038,4914.28
2835.4358,4873.28
2835.9675,4918.28
2836.4993,4904.28
2837.0310,4906.28
2837.5625,4901.28
2838.0938,4941.28
2838.6252,4899.28
2839.1563,4929.28
2839.6875,4978.28
2840.2185,4856.28
2840.7493,4937.28
2841.2803,4949.28
2841.8108,4942.28
2842.3416,4982.28
2842.8721,4934.28
2843.4023,4884.28
2843.9329,4947.28
2844.4629,4967.28
2844.9932,4926.28
2845.5232,4984.28
2846.0530,4998.28
2846.5828,4885.28
2847.1125,4909.28
2847.6421,5000.28
2848.1716,4952.28
2848.7012,4930.28
2849.2305,4997.28
2849.7598,4973.28
2850.2888,4938.28
2850.8179,4960.28
2851.3467,4987.28
2851.8755,4952.28
2852.4043,4991.28
2852.9329,5005.28
2853.4614,4875.28
2853.9900,4972.28
2854.5183,4964.28
2855.0464,4948.28
2855.5747,4971.28
2856.1025,5018.28
2856.6306,4954.28
2857.1584,4923.28
2857.6863,4996.28
2858.2139,4937.28
2858.7415,4942.28
2859.2688,5030.28
2859.7961,4935.28
2860.3235,4942.28
2860.8506,4989.28
2861.3777,4945.28
2861.9045,4946.28
2862.4314,5047.28
2862.9583,4983.28
2863.4849,4942.28
2864.0115,5024.28
2864.5378,4982.28
2865.0642,4969.28
2865.5906,5015.28
2866.1167,5002.28
2866.6428,5000.28
2867.1687,5020.28
2867.6946,5021.28
2868.2202,4989.28
2868.7461,5004.28
2869.2715,4990.28
2869.7971,4972.28
2870.3225,5010.28
2870.8477,5036.28
2871.3728,4992.28
2871.8979,4979.28
2872.4229,5030.28
2872.9478,5054.28
2873.4727,4995.28
2873.9973,5055.28
2874.5220,5039.28
2875.0464,4951.28
2875.5708,5072.28
2876.0950,4969.28
2876.6194,4979.28
2877.1433,5075.28
2877.6675,5035.28
2878.1912,4970.28
2878.7151,5031.28
2879.2388,5031.28
2879.7625,4959.28
2880.2859,5082.28
2880.8093,5070.28
2881.3328,5048.28
2881.8560,5003.28
2882.3789,5101.28
2882.9021,4998.28
2883.4248,4996.28
2883.9478,5066.28
2884.4705,5039.28
2884.9932,5057.28
2885.5156,5075.28
2886.0381,5038.28
2886.5603,5024.28
2887.0828,5036.28
2887.6047,5055.28
2888.1267,5032.28
2888.6487,5083.28
2889.1707,5055.28
2889.6924,5031.28
2890.2141,5026.28
2890.7356,5063.28
2891.2571,5020.28
2891.7783,5041.28
2892.2996,5109.28
2892.8208,5041.28
2893.3418,5018.28
2893.8628,5098.28
2894.3838,5048.28
2894.9045,5037.28
2895.4250,5098.28
2895.9458,5113.28
2896.4663,5034.28
2896.9866,5101.28
2897.5068,5070.28
2898.0271,5013.28
2898.5471,5135.28
2899.0671,5117.28
2899.5872,5055.28
2900.1069,5026.28
2900.6265,5104.28
2901.1462,5079.28
2901.6655,5068.28
2902.1851,5128.28
2902.7043,5041.28
2903.2236,5078.28
2903.7427,5140.28
2904.2617,5056.28
2904.7805,5119.28
2905.2996,5182.28
2905.8181,5095.28
2906.3369,5008.28
2906.8552,5123.28
2907.3738,5117.28
2907.8921,5014.28
2908.4104,5111.28
2908.9285,5141.28
2909.4465,5070.28
2909.9646,5101.28
2910.4824,5144.28
2911.0000,5092.28
2911.5178,5114.28
2912.0354,5174.28
2912.5527,5093.28
2913.0701,5048.28
2913.5874,5121.28
2914.1045,5137.28
2914.6216,5033.28
2915.1387,5133.28
2915.6555,5150.28
2916.1724,5077.28
2916.6890,5136.28
2917.2056,5175.28
2917.7222,5069.28
2918.2385,5149.28
2918.7546,5133.28
2919.2710,5102.28
2919.7871,5108.28
2920.3030,5221.28
2920.8191,5110.28
2921.3347,5025.28
2921.8506,5135.28
2922.3662,5120.28
2922.8816,5096.28
2923.3970,5194.28
2923.9124,5196.28
2924.4277,5118.28
2924.9429,5161.28
2925.4578,5163.28
2925.9729,5125.28
2926.4875,5127.28
2927.0024,5204.28
2927.5171,5099.28
2928.0315,5161.28
2928.5461,5193.28
2929.0603,5124.28
2929.5747,5108.28
2930.0889,5214.28
2930.6030,5144.28
2931.1169,5164.28
2931.6309,5192.28
2932.1445,5234.28
2932.6582,5116.28
2933.1719,5222.28
2933.6853,5208.28
2934.1987,5152.28
2934.7122,5178.28
2935.2253,5252.28
2935.7383,5220.28
2936.2515,5156.28
2936.7644,5219.28
2937.2771,5209.28
2937.7898,5190.28
2938.3025,5224.28
2938.8149,5200.28
2939.3274,5235.28
2939.8398,5270.28
2940.3521,5200.28
2940.8643,5157.28
2941.3762,5234.28
2941.8882,5261.28
2942.4001,5184.28
2942.9119,5188.28
2943.4236,5249.28
2943.9351,5202.28
2944.4465,5218.28
2944.9580,5265.28
2945.4692,5249.28
2945.9805,5204.28
2946.4915,5259.28
2947.0024,5261.28
2947.5134,5156.28
2948.0242,5277.28
2948.5349,5248.28
2949.0454,5215.28
2949.5559,5260.28
2950.0664,5295.28
2950.5767,5218.28
2951.0869,5248.28
2951.5972,5319.28
2952.1072,5248.28
2952.6169,5246.28
2953.1270,5271.28
2953.6367,5263.28
2954.1462,5239.28
2954.6558,5329.28
2955.1653,5300.28
2955.6746,5195.28
2956.1838,5268.28
2956.6931,5337.28
2957.2021,5235.28
2957.7112,5239.28
2958.2200,5350.28
2958.7288,5280.28
2959.2375,5248.28
2959.7461,5304.28
2960.2546,5328.28
2960.7629,5264.28
2961.2712,5343.28
2961.7795,5282.28
2962.2876,5257.28
2962.7957,5308.28
2963.3037,5344.28
2963.8115,5313.28
2964.3191,5315.28
2964.8269,5363.28
2965.3345,5296.28
2965.8418,5330.28
2966.3491,5360.28
2966.8564,5267.28
2967.3635,5309.28
2967.8706,5379.28
2968.3777,5354.28
2968.8845,5320.28
2969.3914,5350.28
2969.8979,5360.28
2970.4045,5310.28
2970.9111,5350.28
2971.4175,5383.28
2971.9238,5322.28
2972.4299,5333.28
2972.9360,5374.28
2973.4421,5335.28
2973.9480,5322.28
2974.4539,5387.28
2974.9597,5329.28
2975.4653,5280.28
2975.9709,5395.28
2976.4763,5385.28
2976.9817,5291.28
2977.4868,5386.28
2977.9922,5428.28
2978.4971,5305.28
2979.0022,5369.28
2979.5071,5389.28
2980.0117,5386.28
2980.5164,5369.28
2981.0210,5446.28
2981.5256,5371.28
2982.0300,5382.28
2982.5342,5382.28
2983.0386,5372.28
2983.5427,5378.28
2984.0466,5430.28
2984.5505,5407.28
2985.0544,5391.28
2985.5581,5348.28
2986.0618,5380.28
2986.5654,5339.28
2987.0688,5323.28
2987.5723,5414.28
2988.0754,5387.28
2988.5786,5393.28
2989.0818,5429.28
2989.5847,5418.28
2990.0876,5346.28
2990.5903,5427.28
2991.0930,5476.28
2991.5957,5419.28
2992.0981,5394.28
2992.6006,5476.28
2993.1028,5413.28
2993.6050,5381.28
2994.1072,5501.28
2994.6094,5473.28
2995.1111,5381.28
2995.6130,5450.28
2996.1147,5474.28
2996.6165,5382.28
2997.1179,5438.28
2997.6194,5516.28
2998.1208,5413.28
2998.6221,5451.28
2999.1233,5524.28
2999.6245,5488.28
3000.1255,5461.28
3000.6262,5480.28
3001.1272,5448.28
3001.6279,5422.28
3002.1284,5467.28
3002.6289,5531.28
3003.1294,5461.28
3003.6296,5446.28
3004.1299,5511.28
3004.6301,5477.28
3005.1301,5443.28
3005.6301,5557.28
3006.1299,5475.28
3006.6296,5441.28
3007.1294,5508.28
3007.6289,5456.28
3008.1284,5420.28
3008.6279,5499.28
3009.1272,5558.28
3009.6265,5484.28
3010.1255,5497.28
3010.6245,5513.28
3011.1235,5478.28
3011.6223,5435.28
3012.1211,5550.28
3012.6196,5508.28
3013.1182,5460.28
3013.6167,5536.28
3014.1150,5550.28
3014.6133,5465.28
3015.1113,5478.28
3015.6094,5554.28
3016.1074,5540.28
3016.6052,5518.28
3017.1030,5586.28
3017.6008,5529.28
3018.0984,5527.28
3018.5959,5567.28
3019.0933,5570.28
3019.5906,5527.28
3020.0879,5564.28
3020.5850,5525.78
3021.0820,5487.28
3021.5791,5572.28
3022.0759,5620.28
3022.5728,5519.28
3023.0693,5504.28
3023.5659,5614.28
3024.0623,5592.28
3024.5588,5526.28
3025.0549,5563.28
3025.5513,5604.28
3026.0474,5527.28
3026.5435,5599.28
3027.0393,5666.28
3027.5352,5537.28
3028.0308,5532.28
3028.5264,5619.28
3029.0220,5598.28
3029.5176,5563.28
3030.0127,5628.28
3030.5081,5692.28
3031.0032,5577.28
3031.4983,5604.28
3031.9934,5671.28
3032.4883,5591.28
3032.9829,5580.28
3033.4778,5659.28
3033.9722,5615.28
3034.4668,5567.28
3034.9612,5675.28
3035.4556,5637.28
3035.9497,5613.28
3036.4438,5656.28
3036.9380,5674.28
3037.4319,5648.28
3037.9258,5693.28
3038.4194,5730.28
3038.9133,5672.28
3039.4067,5614.28
3039.9004,5749.28
3040.3938,5738.28
3040.8870,5628.28
3041.3801,5682.28
3041.8733,5782.28
3042.3662,5682.28
3042.8594,5704.28
3043.3521,5745.28
3043.8447,5713.28
3044.3374,5725.28
3044.8301,5726.28
3045.3225,5798.28
3045.8149,5712.28
3046.3071,5729.28
3046.7993,5778.28
3047.2915,5758.28
3047.7834,5759.28
3048.2754,5865.28
3048.7671,5770.28
3049.2588,5772.28
3049.7505,5825.28
3050.2419,5837.28
3050.7334,5703.28
3051.2249,5835.28
3051.7161,5877.28
3052.2073,5767.28
3052.6982,5835.28
3053.1892,5931.28
3053.6802,5821.28
3054.1709,5889.78
3054.6616,5958.28
3055.1523,5872.28
3055.6428,5846.28
3055.8774,5887.86
3056.4243,5943.86
3056.9709,5901.86
3057.5176,5903.86
3058.0642,5950.86
3058.6106,5909.86
3059.1567,5936.86
3059.7029,5977.86
3060.2490,5945.86
3060.7949,5977.86
3061.3408,5990.86
3061.8867,5997.86
3062.4324,6001.86
3062.9780,6015.86
3063.5234,5986.86
3064.0688,5987.86
3064.6140,6061.86
3065.1592,6026.86
3065.7041,6049.86
3066.2493,6008.86
3066.7939,6092.86
3067.3389,6047.86
3067.8833,6014.86
3068.4280,6091.86
3068.9724,6123.86
3069.5166,6107.86
3070.0610,6105.86
3070.6050,6088.86
3071.1492,6139.86
3071.6931,6132.86
3072.2368,6140.86
3072.7805,6141.86
3073.3242,6209.86
3073.8677,6186.86
3074.4111,6193.86
3074.9543,6211.86
3075.4976,6152.86
3076.0408,6202.86
3076.5837,6254.86
3077.1267,6216.86
3077.6694,6263.86
3078.2122,6227.86
3078.7546,6250.86
3079.2971,6227.86
3079.8396,6313.86
3080.3818,6295.86
3080.9241,6266.86
3081.4661,6319.86
3082.0081,6379.86
3082.5500,6358.86
3083.0918,6375.86
3083.6335,6319.86
3084.1750,6416.86
3084.7166,6385.86
3085.2578,6417.86
3085.7991,6405.86
3086.3403,6453.86
3086.8813,6419.86
3087.4224,6497.86
3087.9631,6421.86
3088.5039,6496.86
3089.0447,6494.86
3089.5852,6484.86
3090.1255,6537.86
3090.6660,6569.86
3091.2063,6568.86
3091.7463,6548.86
3092.2864,6535.86
3092.8264,6615.86
3093.3662,6634.86
3093.9058,6594.86
3094.4456,6675.86
3094.9851,6657.86
3095.5244,6720.86
3096.0637,6680.86
3096.6030,6682.86
3097.1421,6782.86
3097.6812,6732.86
3098.2200,6767.86
3098.7588,6757.86
3099.2976,6776.86
3099.8362,6849.86
3100.3748,6805.86
3100.9131,6826.86
3101.4514,6883.86
3101.9897,6896.86
3102.5278,6868.86
3103.0659,6891.86
3103.6038,6884.86
3104.1416,6887.86
3104.6792,6870.86
3105.2168,6920.86
3105.7544,6992.86
3106.2917,7001.86
3106.8291,6985.86
3107.3662,7023.86
3107.9033,6957.86
3108.4402,7013.86
3108.9771,7089.86
3109.5139,7046.86
3110.0505,7079.86
3110.5872,7091.86
3111.1238,7061.86
3111.6602,7070.86
3112.1963,7149.86
3112.7327,7143.86
3113.2686,7180.86
3113.8047,7104.86
3114.3406,7160.86
3114.8762,7167.86
3115.4119,7182.86
3115.9475,7175.86
3116.4829,7209.86
3117.0183,7239.86
3117.5537,7226.86
3118.0889,7177.86
3118.6238,7176.86
3119.1589,7306.86
3119.6936,7251.86
3120.2285,7269.86
3120.7632,7205.86
3121.2976,7256.86
3121.8323,7325.86
3122.3665,7251.86
3122.9009,7243.86
3123.4351,7294.86
3123.9690,7262.86
3124.5029,7288.86
3125.0369,7294.86
3125.5706,7317.86
3126.1042,7250.86
3126.6377,7298.86
3127.1711,7407.86
3127.7046,7269.86
3128.2378,7261.86
3128.7710,7313.86
3129.3040,7326.86
3129.8369,7266.86
3130.3699,7317.86
3130.9026,7321.86
3131.4353,7290.86
3131.9678,7353.86
3132.5002,7275.86
3133.0325,7273.86
3133.5649,7256.86
3134.0969,7322.86
3134.6289,7261.86
3135.1609,7266.86
3135.6929,7264.86
3136.2246,7237.86
3136.7561,7254.86
3137.2878,7270.86
3137.8191,7192.86
3138.3506,7243.86
3138.8818,7224.86
3139.4128,7223.86
3139.9438,7216.86
3140.4749,7198.86
3141.0056,7156.86
3141.5364,7160.86
3142.0671,7160.86
3142.5977,7175.86
3143.1282,7130.86
3143.6584,7156.86
3144.1887,7158.86
3144.7188,7088.86
3145.2488,7077.86
3145.7788,7080.86
3146.3086,7103.86
3146.8384,7056.86
3147.3679,7046.86
3147.8975,7060.86
3148.4270,7019.86
3148.9563,7059.86
3149.4856,7000.86
3150.0146,6994.86
3150.5437,7056.86
3151.0725,6984.86
3151.6013,7019.86
3152.1301,6998.86
3152.6587,6953.86
3153.1873,6969.86
3153.7158,6936.86
3154.2441,6902.86
3154.7722,6921.86
3155.3005,6892.86
3155.8286,6870.86
3156.3564,6887.86
3156.8843,6801.86
3157.4121,6860.86
3157.9397,6851.86
3158.4673,6837.86
3158.9946,6780.86
3159.5220,6808.86
3160.0493,6768.86
3160.5764,6837.86
3161.1033,6825.86
3161.6304,6790.86
3162.1572,6777.86
3162.6838,6732.86
3163.2104,6745.86
3163.7371,6710.86
3164.2634,6751.86
3164.7898,6701.86
3165.3162,6743.86
3165.8423,6717.86
3166.3682,6654.86
3166.8943,6701.86
3167.4202,6662.86
3167.9458,6644.86
3168.4714,6651.86
3168.9971,6654.86
3169.5225,6663.86
3170.0479,6612.86
3170.5730,6672.86
3171.0981,6631.86
3171.6233,6634.86
3172.1482,6618.86
3172.6731,6630.86
3173.1978,6571.86
3173.7224,6628.86
3174.2468,6535.86
3174.7715,6535.86
3175.2957,6555.86
3175.8201,6592.86
3176.3442,6530.86
3176.8682,6518.86
3177.3921,6556.86
3177.9160,6506.86
3178.4397,6522.86
3178.9634,6518.86
3179.4871,6474.86
3180.0105,6543.86
3180.5337,6528.86
3181.0571,6482.86
3181.5803,6484.86
3182.1033,6494.86
3182.6262,6529.86
3183.1492,6467.86
3183.6719,6522.86
3184.1946,6478.86
3184.7170,6473.86
3185.2395,6478.86
3185.7620,6514.86
3186.2842,6486.86
3186.8064,6428.86
3187.3284,6427.86
3187.8503,6441.86
3188.3723,6401.86
3188.8940,6396.86
3189.4158,6409.86
3189.9373,6432.86
3190.4587,6437.86
3190.9802,6384.86
3191.5015,6350.86
3192.0227,6443.86
3192.5437,6361.86
3193.0647,6401.86
3193.5857,6357.86
3194.1064,6425.86
3194.6272,6440.86
3195.1477,6426.86
3195.6682,6408.86
3196.1885,6430.86
3196.7087,6449.86
3197.2290,6399.86
3197.7490,6409.86
3198.2690,6366.86
3198.7891,6370.86
3199.3088,6375.86
3199.8286,6338.86
3200.3481,6332.86
3200.8677,6348.86
3201.3870,6332.86
3201.9065,6361.86
3202.4255,6350.86
3202.9446,6321.86
3203.4636,6405.86
3203.9827,6371.86
3204.5015,6367.86
3205.0203,6342.86
3205.5388,6351.86
3206.0574,6397.86
3206.5757,6354.86
3207.0940,6336.86
3207.6123,6325.86
3208.1304,6348.86
3208.6484,6288.86
3209.1663,6366.86
3209.6843,6354.86
3210.2019,6366.86
3210.7195,6346.86
3211.2371,6328.86
3211.7546,6363.86
3212.2720,6320.86
3212.7891,6300.86
3213.3064,6377.86
3213.8232,6298.86
3214.3403,6326.86
3214.8572,6290.86
3215.3740,6313.86
3215.8906,6273.86
3216.4072,6314.86
3216.9236,6300.86
3217.4399,6325.86
3217.9563,6295.86
3218.4724,6328.86
3218.9885,6316.86
3219.5044,6302.86
3220.0203,6326.86
3220.5361,6344.86
3221.0518,6301.86
3221.5674,6319.86
3222.0828,6353.86
3222.5981,6302.86
3223.1135,6347.86
3223.6287,6344.86
3224.1438,6276.86
3224.6587,6368.86
3225.1736,6281.86
3225.6885,6308.86
3226.2031,6328.86
3226.7178,6298.86
3227.2322,6329.86
3227.7466,6362.86
3228.2610,6309.86
3228.7751,6299.86
3229.2893,6307.86
3229.8032,6342.86
3230.3171,6339.86
3230.8311,6386.86
3231.3447,6325.86
3231.8584,6320.86
3232.3721,6300.86
3232.8855,6314.86
3233.3987,6261.86
3233.9119,6328.86
3234.4250,6330.86
3234.9382,6310.86
3235.4512,6325.86
3235.9639,6328.86
3236.4766,6364.86
3236.9893,6328.86
3237.5020,6282.86
3238.0144,6268.86
3238.5266,6382.86
3239.0391,6297.86
3239.5510,6381.86
3240.0632,6283.86
3240.5752,6310.86
3241.0872,6284.86
3241.5989,6316.86
3242.1106,6277.86
3242.6221,6284.86
3243.1335,6318.86
3243.6450,6318.86
3244.1563,6316.86
3244.6675,6291.86
3245.1785,6306.86
3245.6895,6325.86
3246.2004,6254.86
3246.7112,6296.86
3247.2219,6278.86
3247.7327,6298.86
3248.2432,6349.86
3248.7534,6333.86
3249.2639,6290.86
3249.7742,6306.86
3250.2842,6297.86
3250.7942,6314.86
3251.3042,6321.86
3251.8140,6290.86
3252.3237,6331.86
3252.8333,6272.86
3253.3430,6250.86
3253.8523,6291.86
3254.3618,6317.86
3254.8708,6265.86
3255.3801,6302.86
3255.8892,6302.86
3256.3982,6306.86
3256.9070,6311.86
3257.4158,6351.86
3257.9246,6278.86
3258.4331,6318.86
3258.9414,6300.86
3259.4500,6316.86
3259.9583,6291.86
3260.4663,6249.86
3260.9744,6313.86
3261.4824,6310.86
3261.9905,6270.86
3262.4983,6330.86
3263.0059,6321.86
3263.5134,6323.86
3264.0210,6301.86
3264.5283,6371.86
3265.0356,6296.86
3265.5430,6272.86
3266.0500,6272.86
3266.5571,6278.86
3267.0640,6252.86
3267.5708,6348.86
3268.0776,6253.86
3268.5842,6334.86
3269.0908,6284.86
3269.5974,6302.86
3270.1038,6262.86
3270.6099,6338.86
3271.1162,6313.86
3271.6221,6304.86
3272.1282,6326.86
3272.6340,6320.86
3273.1399,6287.86
3273.6455,6323.86
3274.1511,6236.86
3274.6565,6283.86
3275.1619,6249.86
3275.6672,6309.86
3276.1724,6311.86
3276.6775,6293.86
3277.1826,6326.86
3277.6875,6326.86
3278.1924,6239.86
3278.6970,6260.86
3279.2017,6267.86
3279.7063,6261.86
3280.2107,6325.86
3280.7151,6272.86
3281.2192,6231.86
3281.7234,6308.86
3282.2275,6264.86
3282.7314,6290.86
3283.2354,6273.86
3283.7390,6303.86
3284.2427,6240.86
3284.7463,6264.86
3285.2498,6264.86
3285.7532,6267.86
3286.2563,6292.86
3286.7595,6300.86
3287.2627,6263.86
3287.7656,6253.86
3288.2686,6234.86
3288.7712,6304.86
3289.2742,6235.86
3289.7766,6290.86
3290.2793,6230.86
3290.7817,6252.86
3291.2839,6265.86
3291.7861,6290.86
3292.2883,6212.86
3292.7903,6271.86
3293.2922,6280.86
3293.7942,6277.86
3294.2959,6301.86
3294.7976,6231.86
3295.2991,6287.86
3295.8005,6259.86
3296.3020,6284.86
3296.8032,6270.86
3297.3044,6276.86
3297.8054,6325.86
3298.3064,6291.86
3298.8074,6294.86
3299.3081,6277.86
3299.8088,6325.86
3300.3096,6292.86
3300.8101,6286.86
3301.3103,6287.86
3301.8108,6302.86
3302.3110,6302.86
3302.8110,6255.86
3303.3110,6256.86
3303.8110,6314.86
3304.3108,6281.86
3304.8105,6280.86
3305.3103,6273.86
3305.8098,6307.86
3306.3093,6303.86
3306.8086,6260.86
3307.3079,6279.86
3307.8071,6282.86
3308.3062,6303.86
3308.8052,6289.86
3309.3042,6279.86
3309.8030,6310.86
3310.3015,6327.86
3310.8003,6283.86
3311.2988,6305.86
3311.7971,6311.86
3312.2954,6294.86
3312.7937,6296.86
3313.2917,6335.86
3313.7898,6288.86
3314.2878,6281.86
3314.7856,6342.86
3315.2834,6320.86
3315.7810,6273.86
3316.2786,6319.86
3316.7761,6253.86
3317.2734,6280.86
3317.7708,6305.86
3318.2678,6285.86
3318.7649,6305.86
3319.2620,6308.86
3319.7588,6285.86
3320.2556,6341.86
3320.7524,6285.86
3321.2490,6312.86
3321.7456,6337.86
3322.2419,6330.86
3322.7383,6339.86
3323.2346,6295.86
3323.7307,6279.86
3324.2268,6293.86
3324.7227,6316.86
3325.2185,6338.86
3325.7144,6318.86
3326.2100,6335.86
3326.7056,6396.86
3327.2009,6261.86
3327.6963,6304.86
3328.1917,6326.86
3328.6868,6314.86
3329.1819,6360.86
3329.6770,6305.86
3330.1719,6289.86
3330.6667,6320.86
3331.1614,6309.86
3331.6560,6299.86
3332.1506,6302.86
3332.6450,6270.86
3333.1394,6310.86
3333.6335,6326.86
3334.1277,6341.86
3334.6218,6303.86
3335.1157,6354.86
3335.6096,6312.86
3336.1035,6314.86
3336.5972,6386.86
3337.0908,6364.86
3337.5842,6330.86
3338.0776,6311.86
3338.5708,6347.86
3339.0642,6338.86
3339.5571,6365.86
3340.0503,6320.86
3340.5432,6321.86
3341.0361,6331.86
3341.5288,6328.86
3342.0215,6311.86
3342.5139,6310.86
3343.0063,6337.86
3343.4988,6370.86
3343.9910,6330.86
3344.4832,6330.86
3344.9753,6378.86
3345.4673,6315.86
3345.9592,6333.86
3346.4509,6382.86
3346.9426,6384.86
3347.4343,6363.86
3347.9258,6351.86
3348.4172,6399.86
3348.9087,6382.86
3349.3999,6359.86
3349.8911,6405.86
3350.3821,6375.86
3350.8730,6369.86
3351.3638,6374.86
3351.8547,6354.86
3352.3452,6361.86
3352.8359,6384.86
3353.3264,6411.86
3353.8167,6436.86
3354.3071,6379.86
3354.7974,6410.86
3355.2874,6415.86
3355.7773,6373.86
3356.2673,6382.86
3356.7571,6369.86
3357.2468,6364.86
3357.7366,6367.86
3358.2261,6415.86
3358.7156,6392.86
3359.2048,6367.86
3359.6941,6407.86
3360.1833,6401.86
3360.6724,6377.86
3361.1614,6400.86
3361.6504,6420.86
3362.1392,6378.86
3362.6279,6416.86
3363.1165,6431.86
3363.6050,6373.86
3364.0933,6406.86
3364.5818,6413.86
3365.0701,6446.86
3365.5581,6420.86
3366.0461,6370.86
3366.5342,6408.86
3367.0220,6388.86
3367.5098,6372.86
3367.9973,6395.86
3368.4851,6434.86
3368.9724,6402.86
3369.4600,6403.86
3369.9473,6502.86
3370.4343,6448.86
3370.9216,6394.86
3371.4087,6467.86
3371.8955,6400.86
3372.3823,6433.86
3372.8691,6439.86
3373.3557,6405.86
3373.8423,6436.86
3374.3289,6374.86
3374.8152,6460.86
3375.3015,6407.86
3375.7876,6410.86
3376.2737,6483.86
3376.7598,6476.86
3377.2456,6417.86
3377.7314,6434.86
3378.2173,6474.86
3378.7029,6387.86
3379.1882,6421.86
3379.6738,6390.86
3380.1592,6434.86
3380.6443,6432.86
3381.1296,6398.86
3381.6147,6437.86
3382.0996,6403.86
3382.5845,6450.86
3383.0693,6420.86
3383.5540,6444.86
3384.0386,6424.86
3384.5232,6448.86
3385.0076,6510.86
3385.4919,6426.86
3385.9761,6473.86
3386.4602,6485.86
3386.9443,6403.86
3387.4282,6421.86
3387.9121,6496.86
3388.3960,6458.86
3388.8796,6440.86
3389.3633,6459.86
3389.8467,6440.86
3390.3301,6430.86
3390.8135,6433.86
3391.2966,6468.86
3391.7798,6505.86
3392.2627,6494.86
3392.7456,6422.86
3393.2285,6462.86
3393.7112,6457.86
3394.1938,6490.86
3394.6765,6424.86
3395.1589,6454.86
3395.6414,6410.86
3396.1238,6490.86
3396.6060,6452.86
3397.0879,6454.86
3397.5701,6460.86
3398.0520,6449.86
3398.5337,6470.86
3399.0154,6463.86
3399.4971,6419.86
3399.9788,6439.86
3400.4602,6495.86
3400.9414,6488.86
3401.4229,6502.86
3401.9041,6475.86
3402.3850,6493.86
3402.8660,6485.86
3403.3469,6463.86
3403.8279,6415.86
3404.3086,6440.86
3404.7891,6490.86
3405.2698,6427.86
3405.7500,6518.86
3406.2305,6484.86
3406.7107,6457.86
3407.1909,6475.86
3407.6709,6544.86
3408.1509,6506.86
3408.6309,6447.86
3409.1106,6521.86
3409.5903,6496.86
3410.0701,6478.86
3410.5496,6419.86
3411.0288,6519.86
3411.5083,6497.86
3411.9875,6479.86
3412.4666,6472.86
3412.9458,6597.86
3413.4248,6468.86
3413.9036,6492.86
3414.3823,6491.86
3414.8611,6489.86
3415.3396,6517.86
3415.8181,6527.86
3416.2966,6508.86
3416.7749,6462.86
3417.2532,6476.86
3417.7312,6528.86
3418.2092,6493.86
3418.6873,6467.86
3419.1653,6543.86
3419.6431,6542.86
3420.1206,6496.86
3420.5981,6500.86
3421.0757,6489.86
3421.5532,6502.86
3422.0305,6478.86
3422.5076,6488.86
3422.9849,6511.86
3423.4619,6488.86
3423.9387,6502.86
3424.4158,6492.86
3424.8923,6553.86
3425.3691,6435.86
3425.8457,6542.86
3426.3223,6506.86
3426.7986,6492.86
3427.2749,6506.86
3427.7512,6516.86
3428.2273,6528.86
3428.7034,6453.86
3429.1792,6545.86
3429.6550,6579.86
3430.1309,6510.86
3430.6064,6511.86
3431.0820,6539.86
3431.5576,6497.86
3432.0330,6506.86
3432.5083,6576.86
3432.9834,6517.86
3433.4587,6490.86
3433.9336,6553.86
3434.4087,6565.86
3434.8835,6494.86
3435.3582,6490.86
3435.8328,6585.86
3436.3074,6586.86
3436.7820,6500.86
3437.2563,6528.86
3437.7307,6615.86
3438.2048,6530.86
3438.6790,6465.86
3439.1531,6537.86
3439.6270,6569.86
3440.1008,6492.86
3440.5745,6543.86
3441.0481,6588.86
3441.5217,6515.86
3441.9951,6482.86
3442.4685,6613.86
3442.9419,6576.86
3443.4150,6486.86
3443.8882,6587.86
3444.3613,6552.86
3444.8342,6552.86
3445.3071,6506.86
3445.7798,6550.86
3446.2524,6567.86
3446.7251,6477.86
3447.1975,6508.86
3447.6699,6651.86
3448.1421,6576.86
3448.6143,6555.86
3449.0864,6545.86
3449.5586,6601.86
3450.0305,6541.86
3450.5022,6535.86
3450.9741,6610.86
3451.4458,6576.86
3451.9172,6536.86
3452.3887,6604.86
3452.8601,6601.86
3453.3315,6574.86
3453.8027,6508.86
3454.2737,6646.86
3454.7449,6620.86
3455.2158,6609.86
3455.6865,6618.86
3456.1572,6560.86
3456.6279,6561.86
3457.0986,6547.86
3457.5691,6618.86
3458.0393,6568.86
3458.5098,6533.86
3458.9800,6648.86
3459.4500,6613.86
3459.9202,6602.86
3460.3899,6618.86
3460.8599,6671.86
3461.3296,6639.86
3461.7993,6588.86
3462.2688,6658.86
3462.7383,6654.86
3463.2078,6589.86
3463.6770,6640.86
3464.1462,6654.86
3464.6155,6569.86
3465.0845,6596.86
3465.5532,6710.86
3466.0222,6675.86
3466.4910,6612.86
3466.9597,6643.86
3467.4282,6674.86
3467.8967,6616.86
3468.3650,6620.86
3468.8335,6632.86
3469.3015,6755.86
3469.7698,6622.86
3470.2378,6717.86
3470.7058,6674.86
3471.1736,6652.86
3471.6414,6643.86
3472.1091,6713.86
3472.5767,6706.86
3473.0442,6637.86
3473.5115,6688.86
3473.9788,6721.86
3474.4460,6663.86
3474.9133,6594.86
3475.3804,6731.86
3475.8472,6724.86
3476.3140,6623.86
3476.7808,6669.86
3477.2476,6740.86
3477.7141,6616.86
3478.1807,6628.86
3478.6470,6691.86
3479.1133,6768.86
3479.5796,6639.86
3480.0457,6662.86
3480.5117,6746.86
3480.9778,6692.86
3481.4436,6698.86
3481.9094,6679.86
3482.3752,6763.86
3482.8408,6657.86
3483.3064,6677.86
3483.7717,6754.86
3484.2371,6733.86
3484.7024,6675.86
3485.1675,6722.86
3485.6326,6761.86
3486.0974,6667.86
3486.5625,6686.86
3487.0271,6771.86
3487.4919,6730.86
3487.9565,6709.86
3488.4211,6766.86
3488.8855,6760.86
3489.3499,6699.86
3489.8140,6744.86
3490.2783,6726.86
3490.7424,6785.86
3491.2063,6736.86
3491.6702,6733.86
3492.1340,6804.86
3492.5977,6811.86
3493.0613,6718.86
3493.5249,6778.86
3493.9883,6799.86
3494.4517,6742.86
3494.9150,6685.86
3495.3782,6798.86
3495.8413,6797.86
3496.3042,6653.86
3496.7673,6778.86
3497.2300,6767.86
3497.6929,6712.86
3498.1555,6718.86
3498.6179,6799.86
3499.0806,6799.86
3499.5430,6678.86
3500.0051,6773.86
3500.4673,6823.86
3500.9294,6767.86
3501.3914,6744.86
3501.8535,6845.86
3502.3152,6818.86
3502.7771,6703.86
3503.2388,6781.86
3503.7002,6846.86
3504.1616,6807.86
3504.6230,6732.86
3505.0845,6862.86
3505.5457,6836.86
3506.0068,6799.86
3506.4678,6805.86
3506.9287,6859.86
3507.3896,6838.86
3507.8503,6737.86
3508.3110,6846.86
3508.7717,6910.86
3509.2322,6770.86
3509.6926,6804.86
3510.1528,6895.86
3510.6133,6879.86
3511.0732,6804.86
3511.5334,6841.86
3511.9934,6887.86
3512.4531,6733.86
3512.9131,6824.86
3513.3728,6900.86
3513.8323,6832.86
3514.2920,6732.86
3514.7512,6805.86
3515.2107,6918.86
3515.6699,6808.86
3516.1292,6817.86
3516.5881,6875.86
3517.0471,6895.86
3517.5061,6847.86
3517.9648,6810.86
3518.4236,6895.86
3518.8823,6847.86
3519.3408,6786.86
3519.7993,6877.86
3520.2576,6954.86
3520.7158,6765.86
3521.1741,6839.86
3521.6323,6945.86
3522.0903,6825.86
3522.5481,6840.86
3523.0061,6932.86
3523.4636,6933.86
3523.9214,6830.86
3524.3789,6867.86
3524.8364,6941.86
3525.2939,6843.86
3525.7512,6813.86
3526.2083,6853.86
3526.6655,6944.86
3527.1226,6866.86
3527.5796,6815.86
3528.0364,6884.86
3528.4932,6946.86
3528.9497,6817.86
3529.4065,6877.86
3529.8630,6996.86
3530.3193,6914.86
3530.7756,6838.86
3531.2319,6900.86
3531.6880,6975.86
3532.1440,6854.86
3532.6001,6810.86
3533.0559,6934.86
3533.5117,6905.86
3533.9675,6771.86
3534.4231,6888.86
3534.8787,6957.86
3535.3342,6874.86
3535.7896,6862.86
3536.2449,6931.86
3536.7000,6923.86
3537.1550,6894.86
3537.6101,6929.86
3538.0649,7083.86
3538.5198,6941.86
3538.9746,6848.86
3539.4292,6921.86
3539.8838,6987.86
3540.3381,6899.86
3540.7927,6886.86
3541.2468,6997.86
3541.7012,7020.86
3542.1553,6925.86
3542.6094,6915.86
3543.0632,7004.86
3543.5171,6913.86
3543.9709,6828.86
3544.4246,6988.86
3544.8782,7045.86
3545.3318,6898.86
3545.7852,6828.86
3546.2385,7023.86
3546.6917,6987.86
3547.1448,6861.86
3547.5979,7047.86
3548.0508,7024.86
3548.5037,6912.86
3548.9565,6855.86
3549.4092,6954.86
3549.8618,7001.86
3550.3145,6905.86
3550.7668,6934.86
3551.2192,7062.86
3551.6716,6975.86
3552.1238,6896.86
3552.5759,7011.86
3553.0278,6997.86
3553.4797,6945.86
3553.9316,6896.86
3554.3833,7051.86
3554.8350,7040.86
3555.2866,6904.86
3555.7380,7003.86
3556.1895,7077.86
3556.6409,6948.86
3557.0920,6926.86
3557.5432,7024.86
3557.9941,7079.86
3558.4451,6942.86
3558.8960,6986.86
3559.3469,7041.86
3559.7976,7056.86
3560.2480,6872.86
3560.6987,7041.86
3561.1492,7102.86
3561.5994,6995.86
3562.0498,6945.86
3562.4998,7085.86
3562.9500,7069.86
3563.3999,6956.86
3563.8499,6921.86
3564.2996,7064.86
3564.7495,7065.86
3565.1990,6935.86
3565.6487,7061.86
3566.0981,7122.86
3566.5474,6970.86
3566.9968,6969.86
3567.4460,7098.86
3567.8950,7070.86
3568.3442,7008.86
3568.7930,7025.86
3569.2419,7149.86
3569.6907,7075.86
3570.1394,6966.86
3570.5879,7040.86
3571.0366,7170.86
3571.4849,6980.86
3571.9333,7004.86
3572.3816,7062.86
3572.8296,7163.86
3573.2778,7033.86
3573.7258,7069.86
3574.1736,7132.86
3574.6213,7070.86
3575.0691,6979.86
3575.5168,7063.86
3575.9644,7106.86
3576.4119,7031.86
3576.8591,7011.86
3577.3064,7148.86
3577.7537,7169.86
3578.2009,6997.86
3578.6479,7038.86
3579.0947,7155.86
3579.5417,7084.86
3579.9885,6998.86
3580.4351,7148.86
3580.8816,7140.86
3581.3281,7015.86
3581.7747,7000.86
3582.2209,7157.86
3582.6672,7221.86
3583.1133,7015.86
3583.5593,7096.86
3584.0054,7192.86
3584.4514,7148.86
3584.8972,7066.86
3585.3428,7109.86
3585.7886,7195.86
3586.2341,7087.86
3586.6794,7095.86
3587.1248,7172.86
3587.5701,7219.86
3588.0154,7058.86
3588.4604,7085.86
3588.9055,7181.86
3589.3503,7100.86
3589.7954,7023.86
3590.2400,7147.86
3590.6848,7201.86
3591.1294,7111.86
3591.5740,7075.86
3592.0183,7225.86
3592.4626,7141.86
3592.9070,7086.86
3593.3511,7112.86
3593.7952,7227.86
3594.2390,7195.86
3594.6831,7037.86
3595.1267,7190.86
3595.5706,7216.86
3596.0142,7095.86
3596.4578,7041.86
3596.9011,7197.86
3597.3447,7221.86
3597.7878,7120.86
3598.2312,7142.86
3598.6743,7239.86
3599.1172,7136.86
3599.5603,7094.86
3600.0032,7137.86
3600.4458,7222.86
3600.8887,7140.86
3601.3311,7093.86
3601.7737,7230.86
3602.2161,7269.86
3602.6584,7056.86
3603.1008,7089.86
3603.5430,7201.86
3603.9849,7202.86
3604.4270,7146.86
3604.8689,7167.86
3605.3108,7272.86
3605.7524,7193.86
3606.1941,7081.86
3606.6357,7235.86
3607.0771,7247.86
3607.5186,7188.86
3607.9600,7184.86
3608.4011,7287.86
3608.8423,7262.86
3609.2832,7136.86
3609.7244,7162.86
3610.1650,7228.86
3610.6060,7195.86
3611.0466,7124.86
3611.4873,7239.86
3611.9277,7300.86
3612.3682,7171.86
3612.8086,7177.86
3613.2488,7268.86
3613.6890,7309.86
3614.1292,7168.86
3614.5691,7185.86
3615.0090,7323.86
3615.4490,7231.86
3615.8887,7184.86
3616.3284,7254.86
3616.7681,7353.86
3617.2075,7175.86
3617.6470,7071.86
3618.0862,7223.86
3618.5254,7323.86
3618.9646,7177.86
3619.4038,7166.86
3619.8428,7331.86
3620.2817,7295.86
3620.7205,7119.86
3621.1592,7214.86
3621.5979,7276.86
3622.0364,7235.86
3622.4749,7191.86
3622.9133,7244.86
3623.3516,7378.86
3623.7898,7216.86
3624.2278,7169.86
3624.6660,7236.86
3625.1038,7324.86
3625.5417,7190.86
3625.9795,7186.86
3626.4172,7308.86
3626.8547,7294.86
3627.2925,7189.86
3627.7297,7191.86
3628.1672,7258.86
3628.6045,7211.86
3629.0417,7196.86
3629.4788,7335.86
3629.9158,7314.86
3630.3528,7175.86
3630.7896,7164.86
3631.2263,7216.86
3631.6628,7294.86
3632.0996,7135.86
3632.5361,7162.86
3632.9724,7342.86
3633.4087,7295.86
3633.8450,7146.86
3634.2813,7257.86
3634.7173,7260.86
3635.1533,7202.86
3635.5891,7111.86
3636.0249,7241.86
3636.4607,7190.86
3636.8965,7179.86
3637.3320,7191.86
3637.7673,7291.86
3638.2029,7283.86
3638.6382,7135.86
3639.0732,7149.86
3639.5085,7315.86
3639.9436,7238.86
3640.3784,7186.86
3640.8132,7226.86
3641.2480,7266.86
3641.6829,7201.86
3642.1174,7051.86
3642.5520,7190.86
3642.9866,7243.86
3643.4209,7123.86
3643.8552,7110.86
3644.2893,7285.86
3644.7234,7218.86
3645.1575,7105.86
3645.5913,7159.86
3646.0251,7234.86
3646.4590,7229.86
3646.8928,7102.86
3647.3264,7200.86
3647.7598,7299.86
3648.1934,7153.86
3648.6267,7115.86
3649.0598,7225.86
3649.4932,7197.86
3649.9263,7075.86
3650.3591,7140.86
3650.7920,7279.86
3651.2249,7239.86
3651.6577,7089.86
3652.0903,7139.86
3652.5229,7211.86
3652.9553,7135.86
3653.3879,7046.86
3653.8201,7186.86
3654.2524,7249.86
3654.6846,7141.86
3655.1167,7068.86
3655.5486,7181.86
3655.9805,7101.86
3656.4124,7021.86
3656.8440,7090.86
3657.2756,7183.86
3657.7073,7203.86
3658.1387,7029.86
3658.5701,7096.86
3659.0015,7216.86
3659.4326,7155.86
3659.8638,7033.86
3660.2949,7104.86
3660.7258,7171.86
3661.1567,7104.86
3661.5876,7063.86
3662.0183,7150.86
3662.4490,7197.86
3662.8794,6998.86
3663.3098,6985.86
3663.7402,7142.86
3664.1707,7200.86
3664.6008,6977.86
3665.0310,7041.86
3665.4609,7220.86
3665.8909,7132.86
3666.3208,6941.86
3666.7505,7021.86
3667.1802,7159.86
3667.6099,7110.86
3668.0393,7004.86
3668.4688,7093.86
3668.8982,7164.86
3669.3274,6962.86
3669.7566,6952.86
3670.1858,7071.86
3670.6147,7078.86
3671.0437,6960.86
3671.4727,7026.86
3671.9014,7125.86
3672.3301,7210.86
3672.7588,6994.86
3673.1873,6991.86
3673.6157,7137.86
3674.0439,7008.86
3674.4722,6956.86
3674.9004,7013.86
3675.3286,7146.86
3675.7566,7011.86
3676.1846,6995.86
3676.6123,7040.86
3677.0400,7062.86
3677.4678,6956.86
3677.8953,6870.86
3678.3230,7064.86
3678.7502,7158.86
3679.1777,7005.86
3679.6050,6952.86
3680.0320,7040.86
3680.4592,7041.86
3680.8862,6953.86
3681.3130,6908.86
3681.7400,7085.86
3682.1667,6998.86
3682.5933,6906.86
3683.0200,6936.86
3683.4465,7059.86
3683.8728,6919.86
3684.2991,6867.86
3684.7253,6931.86
3685.1516,7029.86
3685.5776,6913.86
3686.0037,6854.86
3686.4294,7035.86
3686.8555,7004.86
3687.2813,6853.86
3687.7068,6827.86
3688.1323,7012.86
3688.5579,6997.86
3688.9832,6827.86
3689.4087,6858.86
3689.8337,7075.86
3690.2590,6966.86
3690.6841,6829.86
3691.1091,6888.86
3691.5339,7035.86
3691.9587,6953.86
3692.3835,6779.86
3692.8081,6930.86
3693.2327,6996.86
3693.6572,6899.86
3694.0815,6792.86
3694.5059,6895.86
3694.9302,6999.86
3695.3542,6841.86
3695.7783,6866.86
3696.2024,6998.86
3696.6262,7018.86
3697.0500,6871.86
3697.4739,6809.86
3697.8975,6915.86
3698.3210,6951.86
3698.7446,6733.86
3699.1680,6850.86
3699.5913,6937.86
3700.0144,6984.86
3700.4375,6817.86
3700.8606,6821.86
3701.2837,6902.86
3701.7065,6864.86
3702.1294,6765.86
3702.5520,6829.86
3702.9746,6956.86
3703.3972,6807.86
3703.8198,6737.86
3704.2422,6879.86
3704.6646,6971.86
3705.0867,6786.86
3705.5088,6727.86
3705.9309,6859.86
3706.3528,6932.86
3706.7749,6759.86
3707.1965,6707.86
3707.6184,6876.86
3708.0400,6881.86
3708.4614,6734.86
3708.8831,6700.86
3709.3044,6882.86
3709.7258,6875.86
3710.1470,6766.86
3710.5681,6766.86
3710.9893,6916.86
3711.4102,6873.86
3711.8311,6738.86
3712.2520,6785.86
3712.6726,6906.86
3713.0933,6864.86
3713.5137,6743.86
3713.9343,6779.86
3714.3547,6884.86
3714.7749,6818.86
3715.1951,6691.86
3715.6152,6859.86
3716.0354,6895.86
3716.4553,6746.86
3716.8752,6699.86
3717.2952,6829.86
3717.7148,6889.86
3718.1345,6767.86
3718.5540,6707.86
3718.9736,6828.86
3719.3928,6888.86
3719.8123,6737.86
3720.2314,6714.86
3720.6506,6836.86
3721.0696,6889.86
3721.4888,6706.86
3721.9075,6714.86
3722.3264,6879.86
3722.7451,6845.86
3723.1638,6650.86
3723.5823,6754.86
3724.0007,6874.86
3724.4192,6738.86
3724.8376,6659.86
3725.2559,6763.86
3725.6738,6850.86
3726.0920,6757.86
3726.5100,6656.86
3726.9280,6731.86
3727.3457,6817.86
3727.7634,6707.86
3728.1812,6690.86
3728.5986,6772.86
3729.0161,6809.86
3729.4336,6711.86
3729.8508,6665.86
3730.2681,6733.86
3730.6853,6799.86
3731.1025,6704.86
3731.5195,6698.86
3731.9363,6809.86
3732.3533,6824.86
3732.3967,6658.08
3732.8550,6734.08
3733.3132,6723.08
3733.7712,6651.08
3734.2292,6695.08
3734.6873,6656.08
3735.1450,6676.08
3735.6028,6701.08
3736.0603,6623.08
3736.5178,6639.08
3736.9753,6724.08
3737.4326,6689.08
3737.8899,6584.08
3738.3472,6679.08
3738.8042,6665.08
3739.2612,6703.08
3739.7183,6723.08
3740.1750,6691.08
3740.6318,6618.08
3741.0884,6630.08
3741.5449,6628.08
3742.0015,6670.08
3742.4578,6653.08
3742.9141,6680.08
3743.3704,6673.08
3743.8264,6674.08
3744.2825,6695.08
3744.7383,6680.08
3745.1943,6649.08
3745.6499,6619.08
3746.1057,6609.08
3746.5613,6654.08
3747.0168,6649.08
3747.4722,6684.08
3747.9275,6580.08
3748.3828,6671.08
3748.8379,6606.08
3749.2930,6666.08
3749.7478,6582.08
3750.2026,6600.08
3750.6575,6653.08
3751.1123,6673.08
3751.5669,6728.08
3752.0212,6636.08
3752.4758,6640.08
3752.9302,6645.08
3753.3843,6674.08
3753.8386,6637.08
3754.2927,6623.08
3754.7466,6683.08
3755.2004,6572.08
3755.6543,6605.08
3756.1082,6592.08
3756.5618,6607.08
3757.0151,6654.08
3757.4688,6611.08
3757.9221,6640.08
3758.3752,6616.08
3758.8286,6599.08
3759.2817,6562.08
3759.7346,6544.08
3760.1875,6640.08
3760.6404,6543.08
3761.0933,6574.08
3761.5459,6587.08
3761.9983,6547.08
3762.4509,6555.08
3762.9033,6601.08
3763.3555,6585.08
3763.8079,6524.08
3764.2600,6618.08
3764.7119,6569.08
3765.1638,6586.08
3765.6157,6581.08
3766.0676,6604.08
3766.5193,6596.08
3766.9709,6535.08
3767.4224,6544.08
3767.8738,6501.08
3768.3252,6564.08
3768.7764,6596.08
3769.2275,6573.08
3769.6785,6504.08
3770.1296,6551.08
3770.5806,6576.08
3771.0313,6568.08
3771.4819,6482.08
3771.9326,6541.08
3772.3831,6601.08
3772.8335,6594.08
3773.2839,6540.08
3773.7341,6535.08
3774.1843,6531.08
3774.6345,6532.08
3775.0845,6524.08
3775.5344,6560.08
3775.9844,6533.08
3776.4341,6574.08
3776.8838,6560.08
3777.3333,6539.08
3777.7827,6453.08
3778.2322,6477.08
3778.6814,6506.08
3779.1306,6568.08
3779.5798,6529.08
3780.0288,6519.08
3780.4778,6539.08
3780.9268,6550.08
3781.3755,6502.08
3781.8242,6544.08
3782.2727,6478.08
3782.7214,6501.08
3783.1697,6525.08
3783.6182,6504.08
3784.0664,6478.08
3784.5146,6520.08
3784.9626,6534.08
3785.4106,6473.08
3785.8584,6501.08
3786.3064,6476.08
3786.7542,6478.08
3787.2017,6474.08
3787.6492,6482.08
3788.0967,6425.08
3788.5442,6421.08
3788.9915,6465.08
3789.4387,6468.08
3789.8857,6453.08
3790.3328,6451.08
3790.7798,6475.08
3791.2266,6446.08
3791.6733,6438.08
3792.1199,6461.08
3792.5667,6445.08
3793.0132,6414.08
3793.4595,6465.08
3793.9058,6436.08
3794.3521,6486.08
3794.7983,6440.08
3795.2444,6379.08
3795.6902,6363.08
3796.1362,6444.08
3796.5820,6417.08
3797.0276,6449.08
3797.4734,6526.08
3797.9189,6507.08
3798.3643,6446.08
3798.8096,6422.08
3799.2549,6385.08
3799.7002,6459.08
3800.1453,6437.08
3800.5903,6434.08
3801.0352,6382.08
3801.4800,6478.08
3801.9248,6436.08
3802.3694,6366.08
3802.8140,6412.08
3803.2585,6457.08
3803.7029,6408.08
3804.1472,6399.08
3804.5916,6426.08
3805.0356,6359.08
3805.4797,6432.08
3805.9236,6414.08
3806.3677,6402.08
3806.8113,6382.08
3807.2551,6304.08
3807.6987,6403.08
3808.1423,6366.08
3808.5857,6412.08
3809.0291,6406.08
3809.4724,6399.08
3809.9155,6330.08
3810.3586,6340.08
3810.8018,6359.08
3811.2446,6381.08
3811.6875,6380.08
3812.1301,6407.08
3812.5728,6339.08
3813.0154,6290.08
3813.4580,6394.08
3813.9004,6352.08
3814.3428,6310.08
3814.7849,6340.08
3815.2271,6425.08
3815.6692,6348.08
3816.1111,6332.08
3816.5530,6374.08
3816.9949,6356.08
3817.4365,6307.08
3817.8782,6311.08
3818.3196,6353.08
3818.7610,6343.08
3819.2024,6370.08
3819.6438,6351.08
3820.0850,6349.08
3820.5261,6319.08
3820.9670,6303.08
3821.4080,6346.08
3821.8489,6357.08
3822.2896,6337.08
3822.7302,6336.08
3823.1709,6342.08
3823.6113,6298.08
3824.0518,6315.08
3824.4922,6276.08
3824.9324,6343.08
3825.3726,6339.08
3825.8125,6300.08
3826.2524,6284.08
3826.6924,6357.08
3827.1323,6306.08
3827.5720,6263.08
3828.0115,6240.08
3828.4512,6315.08
3828.8906,6339.08
3829.3301,6272.08
3829.7693,6368.08
3830.2085,6277.08
3830.6475,6248.08
3831.0867,6291.08
3831.5256,6243.08
3831.9644,6270.08
3832.4031,6235.08
3832.8418,6272.08
3833.2805,6302.08
3833.7190,6289.08
3834.1575,6270.08
3834.5957,6235.08
3835.0339,6287.08
3835.4722,6320.08
3835.9102,6246.08
3836.3481,6290.08
3836.7861,6307.08
3837.2239,6317.08
3837.6616,6286.08
3838.0994,6307.08
3838.5369,6266.08
3838.9744,6283.08
3839.4119,6277.08
3839.8491,6279.08
3840.2864,6232.08
3840.7234,6264.08
3841.1604,6237.08
3841.5974,6334.08
3842.0344,6241.08
3842.4712,6203.08
3842.9077,6264.08
3843.3445,6242.08
3843.7810,6289.08
3844.2173,6229.08
3844.6538,6267.08
3845.0901,6279.08
3845.5261,6227.08
3845.9624,6203.08
3846.3984,6233.08
3846.8342,6285.08
3847.2700,6190.08
3847.7058,6279.08
3848.1416,6268.08
3848.5771,6225.08
3849.0127,6145.08
3849.4480,6193.08
3849.8833,6293.08
3850.3186,6195.08
3850.7537,6267.08
3851.1887,6239.08
3851.6238,6254.08
3852.0588,6243.08
3852.4937,6224.08
3852.9282,6219.08
3853.3628,6191.08
3853.7974,6210.08
3854.2319,6209.08
3854.6663,6265.08
3855.1006,6236.08
3855.5349,6278.08
3855.9690,6208.08
3856.4031,6223.08
3856.8369,6256.08
3857.2708,6211.08
3857.7046,6267.08
3858.1384,6196.08
3858.5720,6242.08
3859.0054,6264.08
3859.4390,6238.08
3859.8723,6294.08
3860.3054,6169.08
3860.7388,6173.08
3861.1719,6225.08
3861.6047,6270.08
3862.0378,6253.08
3862.4707,6166.08
3862.9033,6249.08
3863.3362,6223.08
3863.7686,6234.08
3864.2012,6190.08
3864.6335,6197.08
3865.0659,6248.08
3865.4980,6207.08
3865.9304,6262.08
3866.3623,6218.08
3866.7944,6185.08
3867.2263,6161.08
3867.6582,6275.08
3868.0898,6213.08
3868.5215,6263.08
3868.9531,6246.08
3869.3845,6291.08
3869.8159,6231.08
3870.2473,6281.08
3870.6785,6202.08
3871.1096,6191.08
3871.5408,6205.08
3871.9717,6207.08
3872.4026,6295.08
3872.8333,6270.08
3873.2642,6271.08
3873.6946,6250.08
3874.1252,6269.08
3874.5557,6267.08
3874.9861,6258.08
3875.4163,6228.08
3875.8464,6196.08
3876.2766,6285.08
3876.7068,6278.08
3877.1367,6204.08
3877.5664,6201.08
3877.9963,6280.08
3878.4260,6177.08
3878.8555,6250.08
3879.2852,6208.08
3879.7146,6260.08
3880.1438,6248.08
3880.5732,6216.08
3881.0024,6229.08
3881.4314,6193.08
3881.8604,6225.08
3882.2893,6236.08
3882.7183,6289.08
3883.1470,6254.08
3883.5757,6260.08
3884.0042,6237.08
3884.4329,6192.08
3884.8611,6184.08
3885.2896,6186.08
3885.7178,6229.08
3886.1460,6245.08
3886.5740,6271.08
3887.0020,6237.08
3887.4299,6295.08
3887.8577,6245.08
3888.2854,6204.08
3888.7131,6200.08
3889.1406,6189.08
3889.5681,6215.08
3889.9956,6281.08
3890.4229,6201.08
3890.8501,6280.08
3891.2773,6217.08
3891.7043,6231.08
3892.1313,6214.08
3892.5583,6245.08
3892.9851,6233.08
3893.4119,6200.08
3893.8384,6252.08
3894.2651,6246.08
3894.6914,6270.08
3895.1179,6176.08
3895.5442,6285.08
3895.9705,6142.08
3896.3965,6237.08
3896.8225,6223.08
3897.2485,6226.08
3897.6746,6291.08
3898.1003,6178.08
3898.5259,6183.08
3898.9517,6189.08
3899.3772,6241.08
3899.8025,6224.08
3900.2280,6205.08
3900.6533,6171.08
3901.0784,6174.08
3901.5037,6236.08
3901.9287,6245.08
3902.3535,6257.08
3902.7786,6240.08
3903.2031,6126.08
3903.6279,6195.08
3904.0525,6222.08
3904.4771,6289.08
3904.9016,6231.08
3905.3259,6244.08
3905.7502,6222.08
3906.1743,6194.08
3906.5984,6192.08
3907.0225,6192.08
3907.4465,6203.08
3907.8704,6211.08
3908.2942,6228.08
3908.7178,6236.08
3909.1414,6212.08
3909.5649,6236.08
3909.9883,6142.08
3910.4119,6165.08
3910.8350,6207.08
3911.2583,6202.08
3911.6814,6164.08
3912.1042,6269.08
3912.5273,6264.08
3912.9502,6165.08
3913.3728,6181.08
3913.7957,6202.08
3914.2183,6202.08
3914.6406,6162.08
3915.0632,6249.08
3915.4854,6205.08
3915.9077,6235.08
3916.3298,6215.08
3916.7520,6195.08
3917.1741,6233.08
3917.5959,6215.08
3918.0178,6179.08
3918.4395,6105.08
3918.8613,6246.08
3919.2830,6213.08
3919.7043,6161.08
3920.1257,6195.08
3920.5471,6209.08
3920.9683,6163.08
3921.3896,6154.08
3921.8105,6189.08
3922.2317,6254.08
3922.6526,6262.08
3923.0735,6185.08
3923.4941,6203.08
3923.9148,6214.08
3924.3354,6153.08
3924.7559,6143.08
3925.1763,6189.08
3925.5967,6206.08
3926.0168,6207.08
3926.4373,6197.08
3926.8572,6182.08
3927.2773,6253.08
3927.6973,6129.08
3928.1169,6131.08
3928.5369,6190.08
3928.9563,6197.08
3929.3760,6184.08
3929.7954,6197.08
3930.2148,6243.08
3930.6343,6205.08
3931.0535,6180.08
3931.4727,6153.08
3931.8918,6162.08
3932.3108,6225.08
3932.7297,6160.08
3933.1484,6081.08
3933.5674,6211.08
3933.9858,6178.08
3934.4045,6105.08
3934.8230,6145.08
3935.2415,6146.08
3935.6599,6114.08
3936.0781,6082.08
3936.4963,6124.08
3936.9143,6253.08
3937.3323,6172.08
3937.7502,6136.08
3938.1680,6066.08
3938.5859,6190.08
3939.0034,6132.08
3939.4211,6062.08
3939.8386,6190.08
3940.2561,6223.08
3940.6733,6148.08
3941.0906,6110.08
3941.5078,6160.08
3941.9248,6177.08
3942.3418,6044.08
3942.7588,6072.08
3943.1755,6136.08
3943.5923,6251.08
3944.0090,6113.08
3944.4255,6051.08
3944.8420,6074.08
3945.2585,6171.08
3945.6748,6068.08
3946.0911,6110.08
3946.5073,6147.08
3946.9233,6133.08
3947.3394,6175.08
3947.7554,6081.08
3948.1711,6174.08
3948.5869,6180.08
3949.0027,6026.08
3949.4182,6017.08
3949.8337,6110.08
3950.2493,6210.08
3950.6646,6148.08
3951.0798,6103.08
3951.4949,6155.08
3951.9102,6163.08
3952.3252,6096.08
3952.7400,6049.08
3953.1548,6072.08
3953.5696,6151.08
3953.9844,6131.08
3954.3989,6077.08
3954.8135,6151.08
3955.2278,6138.08
3955.6423,6079.08
3956.0564,6090.08
3956.4707,6162.08
3956.8848,6116.08
3957.2988,6051.08
3957.7126,6111.08
3958.1267,6172.08
3958.5403,6124.08
3958.9541,6090.08
3959.3677,6079.08
3959.7813,6063.08
3960.1946,6046.08
3960.6079,6021.08
3961.0212,6069.08
3961.4346,6157.08
3961.8477,6240.08
3962.2607,6026.08
3962.6736,6118.08
3963.0864,6100.08
3963.4993,6063.08
3963.9119,5968.08
3964.3245,6049.08
3964.7371,6171.08
3965.1494,6117.08
3965.5620,6012.08
3965.9741,6092.08
3966.3865,6115.08
3966.7986,6075.08
3967.2104,6023.08
3967.6226,6025.08
3968.0344,6124.08
3968.4463,6129.08
3968.8579,6028.08
3969.2695,6036.08
3969.6812,6140.08
3970.0925,6104.08
3970.5039,6009.08
3970.9153,6003.08
3971.3264,6144.08
3971.7375,6068.08
3972.1487,6018.08
3972.5596,6085.08
3972.9705,6166.08
3973.3813,6097.08
3973.7920,6052.08
3974.2026,6079.08
3974.6133,6128.08
3975.0237,6105.08
3975.4341,6072.08
3975.8445,6073.08
3976.2546,6163.08
3976.6648,6130.08
3977.0747,6009.08
3977.4849,6082.08
3977.8948,6089.08
3978.3044,6113.08
3978.7144,5982.08
3979.1240,5971.08
3979.5334,6159.08
3979.9431,6109.08
3980.3523,6022.08
3980.7617,6006.08
3981.1709,6158.08
3981.5801,6086.08
3981.9893,6032.08
3982.3982,6077.08
3982.8071,6172.08
3983.2161,6134.08
3983.6248,5986.08
3984.0334,6014.08
3984.4419,6175.08
3984.8506,6097.08
3985.2590,6034.08
3985.6672,6018.08
3986.0754,6133.08
3986.4836,6112.08
3986.8918,6025.08
3987.2998,6044.08
3987.7078,6138.08
3988.1157,6106.08
3988.5234,6027.08
3988.9312,6077.08
3989.3386,6186.08
3989.7463,6114.08
3990.1536,6070.08
3990.5610,6013.08
3990.9683,6171.08
3991.3755,6095.08
3991.7827,6016.08
3992.1897,6036.08
3992.5967,6133.08
3993.0034,6132.08
3993.4104,6063.08
3993.8169,6081.08
3994.2236,6185.08
3994.6301,6153.08
3995.0366,6027.08
3995.4431,6036.08
3995.8494,6145.08
3996.2556,6129.08
3996.6616,6008.08
3997.0676,6082.08
3997.4736,6193.08
3997.8796,6199.08
3998.2854,6008.08
3998.6912,6011.08
3999.0967,6163.08
3999.5024,6074.08
3999.9080,5999.08
4000.3132,6097.08

##### Extended Information
[āRāüāōāgÅŅĢ±]
ÄÄŚ┐¢╝,
āRāüāōāg,
æ¬ÆĶÄę
ÅŖæ«
ē’Äą,Ģ║ī╔ī¦Ś¦æÕŖwæÕŖwē@ŹHŖwīżŗåē╚

[āfü[ā^ÅŅĢ±]
ŹņÉ¼ō·Ä×,2025/10/24 12:09

āfü[ā^ā^āCāv,ĢsōÖŖįŖuāfü[ā^
ēĪÄ▓,Raman Shift [cm-1]
ÅcÄ▓,Int.
āXā^ü[āg,999.935 cm-1
āGāōāh,4000.31 cm-1
āfü[ā^Éö,5264    

[æ¬ÆĶÅŅĢ±]
ŗ@ÄĒ¢╝,NRS-4500
āVāŖāAāŗöįŹå,C004261984

æ¬ÆĶō·Ä×,2025/10/24 12:07

śIī§Ä×Ŗį,1 sec
ÉŽÄZē±Éö,1
ÆåÉSögÉö,1618.53 cm-1
ZāXāeü[āWł╩Æu,14321.8 um
ārājāōāOÅŃī└,70
ārājāōāOē║ī└,129
ŚLī°ā`āāāōālāŗö═ł═,1 - 1650
Shift Speed,13 usecs
Readout Rate,1.48MHz at 16-bit
Pre-Amplifier Gain,1x
Enable Keep Cleans,ON
Baseline Clamp,OFF
CCD,DR32400_FI

ŚŃŗNögÆĘ,531.94 nm
Ģ¬ī§ŖĒ,āVāōāOāŗ
āOāīü[āeāBāōāO,L2400
āXāŖābāgĢØ,āė100 um
āŖāWāFāNāVāćāōātāBāŗā^ü[,531.9 nm
Ģ¬ē­,4.35 cm-1, 0.70 cm-1/pixel
æ╬Ģ©āīāōāY,MPLFLN 100 x
BS/DM,BS 30/70
āīü[āUü[ŗŁōx,18.9 mW
īĖī§ŖĒ,100%(āIü[āvāō)
ēFÆłÉ³Å£ŗÄ,On
CCDēĘōx,-60.0 C
ögÉöāVātāg,-2.70 cm-1

