TITLE,
DATA TYPE,RAMAN SPECTRUM
ORIGIN,JASCO
OWNER,
DATE,25/10/25
TIME,15:04:31
SPECTROMETER/DATA SYSTEM,
LOCALE,1041
XUNITS,1/CM
YUNITS,INTENSITY
FIRSTX,  999.9351
LASTX, 4000.0981
NPOINTS,    5263
XYDATA
999.9351,4860
1000.7448,4890
1001.5543,4887
1002.3637,4894
1003.1730,4903
1003.9821,4908
1004.7911,4918
1005.5999,4899
1006.4086,4946
1007.2171,4962
1008.0255,4970
1008.8337,4977
1009.6418,4990
1010.4497,5016
1011.2575,4964
1012.0651,4976
1012.8726,5002
1013.6799,5018
1014.4871,4971
1015.2941,5024
1016.1010,5068
1016.9078,5075
1017.7144,5080
1018.5208,5112
1019.3271,5108
1020.1332,5061
1020.9392,5149
1021.7451,5084
1022.5508,5136
1023.3563,5132
1024.1617,5143
1024.9669,5146
1025.7721,5151
1026.5770,5184
1027.3818,5213
1028.1865,5190
1028.9910,5192
1029.7954,5227
1030.5996,5201
1031.4037,5247
1032.2075,5236
1033.0114,5230
1033.8149,5233
1034.6184,5262
1035.4218,5275
1036.2250,5290
1037.0280,5280
1037.8308,5321
1038.6335,5359
1039.4362,5317
1040.2386,5346
1041.0409,5379
1041.8430,5389
1042.6450,5408
1043.4469,5398
1044.2487,5382
1045.0502,5402
1045.8516,5439
1046.6528,5465
1047.4540,5504
1048.2549,5452
1049.0557,5507
1049.8564,5494
1050.6569,5542
1051.4573,5546
1052.2576,5551
1053.0576,5606
1053.8575,5591
1054.6573,5589
1055.4569,5614
1056.2565,5660
1057.0558,5630
1057.8550,5671
1058.6541,5662
1059.4529,5627
1060.2517,5647
1061.0503,5697
1061.8488,5704
1062.6471,5727
1063.4452,5726
1064.2433,5689
1065.0411,5730
1065.8389,5750
1066.6365,5764
1067.4338,5763
1068.2312,5815
1069.0283,5804
1069.8253,5814
1070.6222,5877
1071.4188,5872
1072.2155,5863
1073.0118,5925
1073.8081,5914
1074.6042,5898
1075.4001,5883
1076.1959,5874
1076.9917,5921
1077.7872,5996
1078.5825,5992
1079.3778,5951
1080.1729,5974
1080.9679,6030
1081.7627,5992
1082.5573,5973
1083.3518,6035
1084.1461,6030
1084.9403,6019
1085.7344,6094
1086.5283,6088
1087.3221,6021
1088.1157,6046
1088.9093,6125
1089.7026,6131
1090.4957,6093
1091.2888,6137
1092.0817,6130
1092.8745,6107
1093.6671,6166
1094.4596,6176
1095.2518,6179
1096.0441,6266
1096.8361,6216
1097.6279,6230
1098.4197,6223
1099.2113,6247
1100.0027,6234
1100.7939,6248
1101.5852,6275
1102.3762,6279
1103.1670,6261
1103.9578,6298
1104.7483,6291
1105.5387,6297
1106.3290,6306
1107.1191,6276
1107.9092,6369
1108.6990,6340
1109.4886,6392
1110.2782,6346
1111.0676,6350
1111.8569,6438
1112.6460,6419
1113.4351,6419
1114.2239,6438
1115.0126,6414
1115.8010,6408
1116.5895,6450
1117.3777,6444
1118.1658,6490
1118.9537,6405
1119.7416,6446
1120.5293,6457
1121.3168,6449
1122.1041,6443
1122.8914,6488
1123.6785,6523
1124.4655,6511
1125.2522,6510
1126.0389,6466
1126.8254,6546
1127.6118,6538
1128.3979,6530
1129.1841,6524
1129.9700,6599
1130.7559,6545
1131.5415,6573
1132.3269,6531
1133.1123,6609
1133.8976,6598
1134.6826,6654
1135.4675,6611
1136.2523,6625
1137.0370,6626
1137.8214,6665
1138.6058,6674
1139.3900,6704
1140.1741,6723
1140.9580,6714
1141.7417,6757
1142.5254,6714
1143.3088,6701
1144.0922,6791
1144.8754,6797
1145.6584,6778
1146.4414,6794
1147.2241,6849
1148.0067,6801
1148.7892,6825
1149.5715,6871
1150.3538,6882
1151.1359,6894
1151.9177,6922
1152.6995,6924
1153.4811,6868
1154.2626,6975
1155.0439,6929
1155.8251,6996
1156.6061,6942
1157.3871,6942
1158.1677,7058
1158.9484,7043
1159.7289,7025
1160.5092,7028
1161.2894,7105
1162.0695,7110
1162.8494,7092
1163.6290,7114
1164.4087,7148
1165.1881,7135
1165.9675,7190
1166.7467,7215
1167.5256,7137
1168.3046,7172
1169.0834,7272
1169.8619,7293
1170.6404,7285
1171.4187,7322
1172.1969,7323
1172.9750,7275
1173.7528,7334
1174.5306,7356
1175.3082,7346
1176.0857,7339
1176.8630,7381
1177.6401,7494
1178.4172,7438
1179.1941,7420
1179.9708,7478
1180.7476,7471
1181.5239,7508
1182.3003,7419
1183.0765,7545
1183.8525,7629
1184.6284,7510
1185.4042,7576
1186.1798,7576
1186.9553,7593
1187.7306,7601
1188.5057,7624
1189.2809,7655
1190.0558,7710
1190.8304,7693
1191.6051,7675
1192.3796,7779
1193.1539,7728
1193.9281,7686
1194.7021,7789
1195.4761,7839
1196.2499,7760
1197.0234,7845
1197.7970,7860
1198.5703,7863
1199.3435,7859
1200.1166,7880
1200.8895,7920
1201.6622,7931
1202.4349,7954
1203.2074,7983
1203.9797,7967
1204.7520,8003
1205.5240,8010
1206.2959,7988
1207.0677,8124
1207.8394,8076
1208.6108,8088
1209.3822,8089
1210.1534,8116
1210.9246,8146
1211.6954,8141
1212.4662,8192
1213.2369,8180
1214.0074,8174
1214.7777,8178
1215.5480,8261
1216.3181,8241
1217.0880,8272
1217.8578,8248
1218.6274,8345
1219.3970,8373
1220.1664,8316
1220.9357,8393
1221.7047,8382
1222.4736,8354
1223.2426,8436
1224.0112,8439
1224.7797,8479
1225.5481,8497
1226.3164,8526
1227.0845,8525
1227.8524,8511
1228.6202,8562
1229.3879,8601
1230.1555,8601
1230.9230,8597
1231.6902,8650
1232.4573,8700
1233.2244,8713
1233.9912,8700
1234.7578,8729
1235.5244,8813
1236.2909,8752
1237.0571,8863
1237.8232,8883
1238.5894,8931
1239.3551,8928
1240.1208,8965
1240.8865,8872
1241.6519,8966
1242.4172,9026
1243.1824,9078
1243.9474,9020
1244.7123,9092
1245.4771,9103
1246.2416,9084
1247.0061,9153
1247.7704,9177
1248.5345,9191
1249.2986,9211
1250.0625,9216
1250.8263,9299
1251.5900,9328
1252.3534,9331
1253.1167,9374
1253.8799,9395
1254.6429,9473
1255.4059,9400
1256.1687,9501
1256.9314,9609
1257.6938,9518
1258.4562,9583
1259.2184,9702
1259.9805,9686
1260.7424,9671
1261.5043,9781
1262.2660,9809
1263.0275,9806
1263.7888,9913
1264.5500,9847
1265.3112,9940
1266.0721,9965
1266.8330,9941
1267.5936,10008
1268.3542,10058
1269.1146,10098
1269.8749,10195
1270.6350,10095
1271.3950,10284
1272.1549,10284
1272.9147,10366
1273.6742,10364
1274.4336,10447
1275.1929,10392
1275.9520,10526
1276.7111,10577
1277.4700,10547
1278.2288,10639
1278.9873,10654
1279.7458,10767
1280.5042,10798
1281.2623,10793
1282.0204,10822
1282.7783,10902
1283.5360,10993
1284.2937,10990
1285.0511,10987
1285.8085,11032
1286.5657,11111
1287.3228,11192
1288.0797,11168
1288.8365,11342
1289.5931,11316
1290.3497,11289
1291.1061,11427
1291.8623,11402
1292.6184,11487
1293.3744,11550
1294.1302,11666
1294.8860,11706
1295.6415,11656
1296.3970,11734
1297.1522,11855
1297.9073,11849
1298.6624,11958
1299.4172,11926
1300.1719,11992
1300.9265,12081
1301.6809,12221
1302.4353,12089
1303.1895,12279
1303.9435,12374
1304.6974,12339
1305.4512,12388
1306.2047,12499
1306.9583,12555
1307.7115,12654
1308.4647,12670
1309.2179,12733
1309.9708,12771
1310.7235,12963
1311.4762,12930
1312.2288,13131
1312.9811,13082
1313.7334,13161
1314.4855,13248
1315.2374,13324
1315.9893,13353
1316.7410,13507
1317.4926,13562
1318.2439,13720
1318.9952,13837
1319.7463,13926
1320.4973,14035
1321.2482,14242
1321.9989,14309
1322.7495,14463
1323.5000,14652
1324.2502,15071
1325.0005,15486
1325.7505,16248
1326.5005,17777
1327.2502,20338
1327.9999,24470
1328.7493,29318
1329.4987,33377
1330.2479,35334
1330.9969,35022
1331.7460,32393
1332.4948,28516
1333.2434,24954
1333.9919,21818
1334.7404,19704
1335.4886,18281
1336.2367,17333
1336.9847,16710
1337.7325,16548
1338.4803,16397
1339.2279,16308
1339.9753,16272
1340.7227,16159
1341.4697,16243
1342.2168,16413
1342.9637,16416
1343.7104,16535
1344.4570,16574
1345.2036,16619
1345.9500,16789
1346.6962,16829
1347.4423,16983
1348.1881,17037
1348.9340,17240
1349.6796,17383
1350.4252,17472
1351.1705,17546
1351.9158,17556
1352.6609,17793
1353.4059,17970
1354.1508,18167
1354.8955,18251
1355.6400,18279
1356.3845,18488
1357.1288,18663
1357.8729,18721
1358.6169,18955
1359.3608,19086
1360.1046,19247
1360.8483,19438
1361.5917,19529
1362.3351,19665
1363.0782,19866
1363.8214,20021
1364.5643,20121
1365.3071,20375
1366.0498,20465
1366.7924,20621
1367.5348,20836
1368.2770,21017
1369.0192,21131
1369.7611,21376
1370.5031,21520
1371.2448,21734
1371.9863,22040
1372.7278,22035
1373.4691,22334
1374.2102,22464
1374.9513,22684
1375.6923,22851
1376.4330,23208
1377.1736,23395
1377.9141,23550
1378.6545,23762
1379.3948,24054
1380.1348,24127
1380.8748,24421
1381.6146,24625
1382.3542,24955
1383.0939,25049
1383.8333,25284
1384.5725,25590
1385.3118,25737
1386.0508,25983
1386.7897,26173
1387.5283,26430
1388.2670,26609
1389.0055,26757
1389.7438,27113
1390.4821,27288
1391.2201,27466
1391.9580,27745
1392.6958,27909
1393.4335,28112
1394.1710,28321
1394.9084,28645
1395.6456,28808
1396.3828,29067
1397.1198,29348
1397.8567,29384
1398.5934,29725
1399.3300,30018
1400.0664,30161
1400.8027,30368
1401.5389,30580
1402.2750,30686
1403.0109,31054
1403.7467,31013
1404.4823,31310
1405.2179,31530
1405.9532,31548
1406.6885,31766
1407.4236,31915
1408.1586,32315
1408.8934,32473
1409.6281,32542
1410.3627,32505
1411.0972,32638
1411.8314,32856
1412.5656,32969
1413.2997,32981
1414.0336,33213
1414.7673,33279
1415.5010,33312
1416.2345,33570
1416.9678,33528
1417.7010,33566
1418.4341,33741
1419.1671,33774
1419.8999,33863
1420.6327,33907
1421.3652,33855
1422.0977,33916
1422.8300,33987
1423.5621,34071
1424.2941,33961
1425.0260,33833
1425.7578,33964
1426.4894,33969
1427.2209,33933
1427.9523,33847
1428.6835,33834
1429.4146,33750
1430.1455,33856
1430.8763,33762
1431.6071,33653
1432.3376,33454
1433.0680,33417
1433.7983,33469
1434.5286,33273
1435.2585,33228
1435.9884,33154
1436.7181,32974
1437.4478,32907
1438.1772,32720
1438.9066,32781
1439.6359,32418
1440.3650,32531
1441.0940,32394
1441.8228,32221
1442.5515,32007
1443.2800,31953
1444.0084,31704
1444.7368,31529
1445.4650,31294
1446.1930,31235
1446.9209,31077
1447.6486,30850
1448.3762,30899
1449.1038,30666
1449.8311,30370
1450.5583,30108
1451.2854,30016
1452.0125,29919
1452.7393,29790
1453.4659,29541
1454.1925,29395
1454.9189,29137
1455.6453,29040
1456.3715,28859
1457.0974,28675
1457.8234,28548
1458.5492,28463
1459.2748,28238
1460.0002,28083
1460.7257,27930
1461.4509,27651
1462.1760,27506
1462.9010,27406
1463.6259,27260
1464.3506,27082
1465.0752,26952
1465.7996,26755
1466.5239,26639
1467.2482,26574
1467.9722,26252
1468.6960,26068
1469.4199,26007
1470.1436,26008
1470.8671,25889
1471.5905,25595
1472.3137,25454
1473.0369,25321
1473.7599,25186
1474.4827,25060
1475.2054,24883
1475.9281,24758
1476.6505,24575
1477.3729,24545
1478.0951,24430
1478.8171,24245
1479.5391,24161
1480.2609,24154
1480.9825,23900
1481.7041,23839
1482.4255,23703
1483.1469,23594
1483.8680,23484
1484.5890,23445
1485.3099,23412
1486.0306,23151
1486.7512,22988
1487.4718,23052
1488.1921,22907
1488.9124,22754
1489.6324,22710
1490.3524,22625
1491.0723,22406
1491.7920,22334
1492.5116,22481
1493.2310,22405
1493.9503,22207
1494.6696,22150
1495.3885,22063
1496.1074,21941
1496.8263,21962
1497.5449,21887
1498.2634,21785
1498.9818,21643
1499.7001,21584
1500.4182,21495
1501.1362,21399
1501.8541,21389
1502.5719,21425
1503.2894,21221
1504.0070,21206
1504.7242,21146
1505.4415,21120
1506.1586,21047
1506.8756,21010
1507.5924,20965
1508.3091,20842
1509.0256,20801
1509.7421,20874
1510.4584,20726
1511.1746,20712
1511.8906,20616
1512.6064,20643
1513.3223,20613
1514.0380,20522
1514.7534,20556
1515.4689,20418
1516.1841,20410
1516.8992,20424
1517.6143,20272
1518.3291,20252
1519.0438,20267
1519.7584,20184
1520.4729,20107
1521.1873,20047
1521.9015,20056
1522.6155,20043
1523.3295,19984
1524.0433,19910
1524.7570,19949
1525.4706,19990
1526.1840,19876
1526.8973,19844
1527.6105,19879
1528.3235,19807
1529.0365,19750
1529.7493,19783
1530.4619,19684
1531.1744,19699
1531.8868,19724
1532.5991,19692
1533.3112,19579
1534.0232,19673
1534.7351,19372
1535.4468,19615
1536.1584,19498
1536.8699,19553
1537.5813,19517
1538.2925,19549
1539.0035,19516
1539.7146,19464
1540.4254,19397
1541.1361,19495
1541.8467,19453
1542.5571,19377
1543.2675,19344
1543.9777,19347
1544.6877,19392
1545.3976,19351
1546.1074,19241
1546.8171,19250
1547.5266,19284
1548.2361,19310
1548.9453,19207
1549.6545,19215
1550.3635,19212
1551.0724,19129
1551.7811,19149
1552.4899,19166
1553.1984,19078
1553.9067,19142
1554.6150,19134
1555.3231,19113
1556.0310,19205
1556.7389,19047
1557.4467,18996
1558.1543,19037
1558.8617,19061
1559.5691,19093
1560.2762,19016
1560.9834,19055
1561.6903,19072
1562.3972,19030
1563.1039,18967
1563.8104,18984
1564.5168,18938
1565.2233,18992
1565.9294,18943
1566.6355,19024
1567.3414,18994
1568.0472,18931
1568.7528,18966
1569.4584,19008
1570.1638,19025
1570.8691,18973
1571.5742,18879
1572.2793,18938
1572.9843,19003
1573.6890,18954
1574.3937,18949
1575.0981,18976
1575.8025,19053
1576.5068,18916
1577.2109,18891
1577.9149,19068
1578.6188,19042
1579.3225,18984
1580.0261,18969
1580.7296,19001
1581.4330,19099
1582.1362,19042
1582.8394,18966
1583.5424,19114
1584.2451,19075
1584.9479,19111
1585.6505,19078
1586.3529,19110
1587.0553,19043
1587.7574,19111
1588.4596,19161
1589.1615,19136
1589.8634,19095
1590.5651,19198
1591.2666,19308
1591.9680,19146
1592.6693,19340
1593.3706,19204
1594.0717,19322
1594.7726,19328
1595.4734,19328
1596.1741,19383
1596.8745,19321
1597.5750,19268
1598.2753,19382
1598.9755,19443
1599.6754,19459
1600.3754,19456
1601.0752,19376
1601.7748,19515
1602.4744,19535
1603.1737,19582
1603.8730,19511
1604.5721,19525
1605.2712,19579
1605.9701,19627
1606.6688,19601
1607.3674,19749
1608.0659,19712
1608.7644,19683
1609.4626,19718
1610.1608,19855
1610.8588,19759
1611.5566,19800
1612.2544,19850
1612.9520,19860
1613.6494,19790
1614.3468,19843
1615.0441,19880
1615.7412,19947
1616.4381,20002
1617.1350,20038
1617.8318,20009
1618.5283,20039
1619.2249,20148
1619.9211,20053
1620.6174,20157
1621.3135,20173
1622.0094,20178
1622.7053,20208
1623.4010,20274
1624.0966,20287
1624.7920,20332
1625.4874,20381
1626.1826,20351
1626.8777,20395
1627.5726,20403
1628.2675,20329
1628.9622,20381
1629.6567,20537
1630.3512,20568
1631.0455,20525
1631.7397,20568
1632.4337,20548
1633.1277,20689
1633.8215,20633
1634.5153,20637
1635.2087,20734
1635.9022,20741
1636.5956,20691
1637.2887,20731
1637.9818,20804
1638.6747,20902
1639.3676,20988
1640.0602,20946
1640.7527,20844
1641.4452,20832
1642.1375,21001
1642.8296,21029
1643.5217,20955
1644.2136,21006
1644.9054,21008
1645.5970,20990
1646.2886,20995
1646.9801,21214
1647.6714,21110
1648.3625,21118
1649.0536,21146
1649.7445,21208
1650.4353,21274
1651.1260,21214
1651.8164,21320
1652.5068,21178
1653.1971,21324
1653.8873,21290
1654.5774,21477
1655.2672,21410
1655.9570,21404
1656.6467,21356
1657.3362,21462
1658.0256,21471
1658.7150,21459
1659.4041,21514
1660.0931,21498
1660.7820,21610
1661.4708,21676
1662.1594,21692
1662.8480,21579
1663.5364,21702
1664.2247,21717
1664.9128,21743
1665.6008,21703
1666.2887,21774
1666.9766,21715
1667.6642,21810
1668.3517,21870
1669.0391,21908
1669.7264,21785
1670.4136,21933
1671.1006,21862
1671.7875,21878
1672.4742,21933
1673.1609,21970
1673.8474,21919
1674.5338,22006
1675.2201,22030
1675.9063,22172
1676.5923,22007
1677.2782,22092
1677.9640,22172
1678.6497,22152
1679.3351,22141
1680.0205,22181
1680.7058,22202
1681.3910,22151
1682.0760,22249
1682.7609,22155
1683.4457,22351
1684.1304,22283
1684.8148,22367
1685.4993,22408
1686.1836,22470
1686.8677,22464
1687.5518,22439
1688.2356,22482
1688.9194,22452
1689.6030,22495
1690.2866,22577
1690.9700,22635
1691.6533,22563
1692.3364,22588
1693.0195,22614
1693.7024,22643
1694.3853,22700
1695.0679,22718
1695.7504,22668
1696.4329,22785
1697.1151,22817
1697.7972,22801
1698.4794,22840
1699.1613,22975
1699.8430,22839
1700.5247,22926
1701.2063,23063
1701.8877,23050
1702.5690,23082
1703.2501,23044
1703.9312,23117
1704.6121,23144
1705.2930,23168
1705.9736,23198
1706.6542,23152
1707.3346,23273
1708.0149,23227
1708.6951,23350
1709.3751,23425
1710.0551,23508
1710.7349,23416
1711.4146,23463
1712.0941,23533
1712.7736,23559
1713.4529,23571
1714.1321,23442
1714.8112,23613
1715.4901,23601
1716.1689,23680
1716.8477,23657
1717.5261,23728
1718.2046,23756
1718.8829,23633
1719.5612,23860
1720.2393,23896
1720.9172,23869
1721.5950,23908
1722.2727,23981
1722.9503,24044
1723.6278,24050
1724.3052,23991
1724.9823,24074
1725.6594,24180
1726.3364,24114
1727.0133,24213
1727.6899,24174
1728.3666,24229
1729.0431,24140
1729.7194,24327
1730.3956,24239
1731.0718,24359
1731.7477,24400
1732.4236,24371
1733.0994,24480
1733.7749,24403
1734.4504,24524
1735.1259,24606
1735.8010,24564
1736.4762,24560
1737.1512,24583
1737.8260,24635
1738.5009,24721
1739.1754,24575
1739.8500,24710
1740.5244,24696
1741.1986,24785
1741.8728,24966
1742.5468,24850
1743.2207,24892
1743.8944,24851
1744.5681,24878
1745.2417,24995
1745.9150,24881
1746.5884,25043
1747.2615,25015
1747.9346,25035
1748.6074,25057
1749.2803,25132
1749.9529,25129
1750.6255,25084
1751.2979,25054
1751.9702,25200
1752.6423,25267
1753.3145,25232
1753.9865,25223
1754.6582,25235
1755.3300,25286
1756.0015,25309
1756.6730,25440
1757.3442,25428
1758.0155,25351
1758.6865,25435
1759.3575,25465
1760.0283,25478
1760.6991,25427
1761.3696,25314
1762.0402,25446
1762.7104,25398
1763.3807,25447
1764.0508,25515
1764.7208,25491
1765.3906,25457
1766.0604,25552
1766.7300,25513
1767.3995,25600
1768.0688,25488
1768.7382,25591
1769.4072,25595
1770.0763,25481
1770.7451,25608
1771.4139,25480
1772.0825,25616
1772.7511,25630
1773.4196,25565
1774.0878,25626
1774.7560,25666
1775.4240,25575
1776.0919,25661
1776.7596,25676
1777.4274,25670
1778.0950,25677
1778.7623,25674
1779.4297,25602
1780.0968,25690
1780.7639,25808
1781.4308,25783
1782.0977,25672
1782.7644,25741
1783.4309,25642
1784.0974,25631
1784.7638,25648
1785.4299,25753
1786.0961,25722
1786.7621,25613
1787.4279,25594
1788.0936,25685
1788.7593,25632
1789.4247,25793
1790.0901,25664
1790.7554,25707
1791.4204,25738
1792.0854,25696
1792.7504,25785
1793.4152,25742
1794.0797,25766
1794.7443,25722
1795.4087,25772
1796.0730,25617
1796.7371,25710
1797.4011,25768
1798.0651,25825
1798.7289,25755
1799.3926,25774
1800.0560,25839
1800.7195,25858
1801.3828,25804
1802.0460,25766
1802.7091,25673
1803.3721,25805
1804.0349,25708
1804.6976,25793
1805.3602,25777
1806.0227,25712
1806.6849,25753
1807.3472,25761
1808.0093,25599
1808.6713,25777
1809.3331,25677
1809.9949,25629
1810.6566,25736
1811.3181,25745
1811.9795,25785
1812.6407,25802
1813.3019,25719
1813.9629,25745
1814.6238,25707
1815.2845,25743
1815.9452,25726
1816.6058,25758
1817.2662,25651
1817.9265,25727
1818.5867,25785
1819.2467,25723
1819.9067,25659
1820.5665,25741
1821.2262,25545
1821.8857,25701
1822.5453,25762
1823.2046,25563
1823.8638,25664
1824.5229,25672
1825.1819,25615
1825.8408,25724
1826.4995,25642
1827.1581,25691
1827.8167,25579
1828.4750,25651
1829.1333,25695
1829.7914,25663
1830.4495,25654
1831.1074,25642
1831.7651,25643
1832.4229,25759
1833.0803,25724
1833.7378,25668
1834.3951,25687
1835.0522,25706
1835.7094,25705
1836.3663,25654
1837.0231,25691
1837.6798,25692
1838.3364,25688
1838.9929,25661
1839.6493,25756
1840.3054,25692
1840.9615,25727
1841.6176,25609
1842.2734,25677
1842.9292,25563
1843.5848,25660
1844.2404,25615
1844.8958,25629
1845.5510,25619
1846.2062,25577
1846.8612,25646
1847.5161,25662
1848.1709,25740
1848.8256,25571
1849.4802,25626
1850.1346,25550
1850.7889,25645
1851.4431,25615
1852.0973,25499
1852.7512,25605
1853.4050,25466
1854.0588,25564
1854.7124,25619
1855.3658,25536
1856.0193,25584
1856.6725,25430
1857.3257,25628
1857.9786,25606
1858.6316,25505
1859.2843,25482
1859.9370,25557
1860.5895,25657
1861.2419,25580
1861.8943,25506
1862.5464,25545
1863.1985,25482
1863.8505,25552
1864.5023,25392
1865.1541,25429
1865.8055,25426
1866.4570,25525
1867.1084,25349
1867.7596,25351
1868.4108,25405
1869.0618,25532
1869.7126,25391
1870.3634,25402
1871.0140,25477
1871.6646,25313
1872.3149,25341
1872.9653,25406
1873.6155,25394
1874.2655,25261
1874.9154,25341
1875.5653,25311
1876.2150,25298
1876.8645,25304
1877.5140,25284
1878.1633,25180
1878.8125,25196
1879.4617,25342
1880.1106,25341
1880.7595,25237
1881.4083,25150
1882.0569,25050
1882.7054,25174
1883.3539,25004
1884.0021,25219
1884.6503,25077
1885.2983,25115
1885.9463,25159
1886.5940,25157
1887.2417,25075
1887.8893,25218
1888.5367,24915
1889.1841,24986
1889.8313,24950
1890.4784,24955
1891.1254,25121
1891.7723,24979
1892.4191,24950
1893.0657,24953
1893.7122,24998
1894.3585,24983
1895.0049,24867
1895.6510,25007
1896.2971,24933
1896.9430,24838
1897.5887,24923
1898.2345,24906
1898.8800,24848
1899.5255,24848
1900.1709,24830
1900.8160,24744
1901.4612,24811
1902.1062,24824
1902.7511,24891
1903.3958,24748
1904.0404,24822
1904.6849,24762
1905.3293,24705
1905.9736,24828
1906.6178,24601
1907.2618,24660
1907.9058,24606
1908.5496,24703
1909.1932,24748
1909.8369,24671
1910.4803,24593
1911.1237,24589
1911.7670,24460
1912.4100,24579
1913.0530,24496
1913.6959,24528
1914.3386,24510
1914.9813,24567
1915.6238,24490
1916.2662,24496
1916.9086,24534
1917.5507,24486
1918.1927,24427
1918.8347,24419
1919.4766,24581
1920.1183,24526
1920.7599,24443
1921.4014,24410
1922.0427,24477
1922.6840,24514
1923.3251,24417
1923.9661,24530
1924.6069,24366
1925.2477,24321
1925.8884,24454
1926.5289,24452
1927.1693,24415
1927.8097,24561
1928.4498,24460
1929.0900,24376
1929.7299,24361
1930.3698,24340
1931.0095,24409
1931.6490,24345
1932.2886,24430
1932.9280,24358
1933.5673,24398
1934.2064,24362
1934.8453,24412
1935.4843,24364
1936.1230,24398
1936.7618,24372
1937.4004,24399
1938.0388,24379
1938.6771,24422
1939.3153,24489
1939.9535,24403
1940.5914,24344
1941.2292,24488
1941.8671,24365
1942.5046,24409
1943.1422,24355
1943.7797,24371
1944.4169,24476
1945.0541,24397
1945.6912,24413
1946.3281,24409
1946.9648,24413
1947.6016,24387
1948.2382,24486
1948.8746,24512
1949.5110,24529
1950.1473,24601
1950.7834,24501
1951.4194,24512
1952.0553,24448
1952.6912,24543
1953.3268,24443
1953.9623,24423
1954.5978,24466
1955.2330,24496
1955.8683,24690
1956.5034,24594
1957.1383,24516
1957.7732,24548
1958.4080,24561
1959.0426,24513
1959.6771,24687
1960.3115,24569
1960.9458,24676
1961.5800,24587
1962.2140,24714
1962.8479,24710
1963.4817,24654
1964.1155,24677
1964.7490,24657
1965.3824,24737
1966.0159,24871
1966.6490,24727
1967.2822,24804
1967.9153,24769
1968.5481,24606
1969.1809,24808
1969.8136,24941
1970.4462,24884
1971.0786,24802
1971.7109,24885
1972.3431,24872
1972.9752,24823
1973.6072,24886
1974.2390,24970
1974.8707,24879
1975.5024,24822
1976.1339,24831
1976.7654,24962
1977.3966,24998
1978.0278,24985
1978.6588,24832
1979.2898,24939
1979.9207,24991
1980.5514,25013
1981.1819,25049
1981.8124,25098
1982.4427,24948
1983.0730,25040
1983.7031,25016
1984.3333,25136
1984.9631,25137
1985.5929,25161
1986.2225,25053
1986.8522,24998
1987.4816,25083
1988.1110,25194
1988.7401,25220
1989.3693,25226
1989.9983,25251
1990.6272,25195
1991.2559,25248
1991.8845,25251
1992.5131,25277
1993.1415,25247
1993.7698,25274
1994.3981,25304
1995.0261,25352
1995.6541,25265
1996.2819,25333
1996.9097,25221
1997.5372,25384
1998.1648,25347
1998.7921,25381
1999.4194,25439
2000.0466,25369
2000.6737,25388
2001.3005,25339
2001.9274,25374
2002.5541,25495
2003.1807,25407
2003.8073,25419
2004.4336,25474
2005.0598,25423
2005.6859,25530
2006.3120,25490
2006.9379,25465
2007.5637,25510
2008.1893,25418
2008.8149,25509
2009.4404,25562
2010.0657,25502
2010.6909,25638
2011.3160,25650
2011.9410,25626
2012.5659,25481
2013.1907,25640
2013.8154,25526
2014.4399,25647
2015.0643,25473
2015.6887,25561
2016.3129,25519
2016.9370,25608
2017.5609,25710
2018.1848,25616
2018.8086,25563
2019.4323,25496
2020.0557,25607
2020.6791,25665
2021.3024,25567
2021.9257,25572
2022.5487,25638
2023.1716,25640
2023.7944,25746
2024.4172,25757
2025.0398,25621
2025.6624,25694
2026.2847,25655
2026.9070,25642
2027.5292,25615
2028.1512,25783
2028.7731,25735
2029.3949,25803
2030.0166,25789
2030.6383,25749
2031.2598,25835
2031.8811,25777
2032.5023,25790
2033.1235,25760
2033.7445,25923
2034.3655,25798
2034.9862,25654
2035.6069,25804
2036.2275,25843
2036.8480,25745
2037.4684,25906
2038.0886,25855
2038.7087,25814
2039.3287,25963
2039.9486,25924
2040.5684,25859
2041.1881,25988
2041.8076,25846
2042.4271,26081
2043.0464,26001
2043.6656,25963
2044.2848,25957
2044.9038,25928
2045.5227,25969
2046.1415,26144
2046.7601,26067
2047.3787,26047
2047.9971,25869
2048.6155,25985
2049.2336,26088
2049.8518,26072
2050.4697,26150
2051.0876,26154
2051.7053,25989
2052.3230,26164
2052.9404,26073
2053.5579,26142
2054.1753,26022
2054.7925,26024
2055.4094,26247
2056.0266,26181
2056.6433,26190
2057.2600,26313
2057.8767,26097
2058.4932,26228
2059.1096,26285
2059.7261,26205
2060.3420,26223
2060.9583,26282
2061.5742,26299
2062.1899,26277
2062.8059,26262
2063.4214,26284
2064.0369,26432
2064.6523,26380
2065.2676,26340
2065.8828,26413
2066.4978,26399
2067.1128,26497
2067.7278,26462
2068.3423,26455
2068.9570,26464
2069.5715,26556
2070.1860,26500
2070.8003,26548
2071.4143,26480
2072.0283,26641
2072.6423,26625
2073.2561,26699
2073.8699,26586
2074.4836,26619
2075.0972,26573
2075.7104,26647
2076.3237,26757
2076.9368,26658
2077.5500,26736
2078.1628,26744
2078.7756,26723
2079.3884,26779
2080.0010,26741
2080.6135,26800
2081.2258,26686
2081.8381,26821
2082.4504,26870
2083.0625,26807
2083.6743,26911
2084.2861,26884
2084.8979,26843
2085.5095,27011
2086.1208,27001
2086.7324,26883
2087.3435,26985
2087.9548,26870
2088.5659,26999
2089.1768,27103
2089.7876,27165
2090.3982,27127
2091.0088,27084
2091.6194,27111
2092.2297,27110
2092.8401,27132
2093.4502,27011
2094.0603,27120
2094.6702,27158
2095.2800,27088
2095.8896,27189
2096.4993,27188
2097.1089,27310
2097.7183,27228
2098.3274,27255
2098.9365,27316
2099.5457,27415
2100.1545,27331
2100.7634,27343
2101.3721,27191
2101.9807,27262
2102.5894,27332
2103.1975,27307
2103.8059,27369
2104.4141,27427
2105.0222,27341
2105.6301,27479
2106.2378,27368
2106.8457,27408
2107.4531,27471
2108.0608,27356
2108.6680,27540
2109.2754,27493
2109.8826,27425
2110.4895,27568
2111.0964,27530
2111.7034,27489
2112.3101,27432
2112.9167,27444
2113.5232,27590
2114.1296,27531
2114.7358,27468
2115.3420,27555
2115.9480,27561
2116.5540,27549
2117.1599,27581
2117.7656,27576
2118.3711,27534
2118.9768,27670
2119.5820,27530
2120.1875,27406
2120.7925,27586
2121.3977,27715
2122.0027,27620
2122.6074,27547
2123.2122,27512
2123.8169,27601
2124.4214,27546
2125.0256,27667
2125.6299,27500
2126.2341,27516
2126.8384,27533
2127.4421,27552
2128.0461,27670
2128.6499,27595
2129.2534,27632
2129.8569,27622
2130.4604,27635
2131.0637,27625
2131.6670,27598
2132.2700,27677
2132.8730,27590
2133.4758,27715
2134.0786,27656
2134.6812,27609
2135.2837,27826
2135.8862,27750
2136.4016,27679.6
2137.0630,27525.6
2137.7241,27610.6
2138.3853,27630.6
2139.0461,27614.6
2139.7070,27683.6
2140.3677,27643.6
2141.0283,27711.6
2141.6890,27811.6
2142.3491,27635.6
2143.0095,27754.6
2143.6694,27885.6
2144.3296,27847.6
2144.9893,27668.6
2145.6492,27699.6
2146.3086,27675.6
2146.9683,27655.6
2147.6277,27682.6
2148.2869,27791.6
2148.9460,27632.6
2149.6050,27779.6
2150.2639,27822.6
2150.9226,27704.6
2151.5813,27736.6
2152.2397,27725.6
2152.8982,27726.6
2153.5564,27914.6
2154.2146,27740.6
2154.8726,27695.6
2155.5305,27772.6
2156.1882,27852.6
2156.8459,27674.6
2157.5034,27764.6
2158.1609,27629.6
2158.8184,27640.6
2159.4753,27669.6
2160.1326,27714.6
2160.7893,27548.6
2161.4463,27633.6
2162.1030,27732.6
2162.7595,27642.6
2163.4160,27750.6
2164.0723,27658.6
2164.7285,27562.6
2165.3845,27744.6
2166.0405,27792.6
2166.6963,27624.6
2167.3521,27614.6
2168.0078,27647.6
2168.6633,27771.6
2169.3186,27534.6
2169.9739,27836.6
2170.6289,27823.6
2171.2839,27756.6
2171.9387,27528.6
2172.5935,27673.6
2173.2483,27680.6
2173.9028,27604.6
2174.5571,27657.6
2175.2114,27736.6
2175.8655,27532.6
2176.5195,27623.6
2177.1736,27788.6
2177.8271,27759.6
2178.4810,27773.6
2179.1345,27833.6
2179.7878,27685.6
2180.4412,27672.6
2181.0945,27850.6
2181.7476,27684.6
2182.4004,27810.6
2183.0532,27657.6
2183.7061,27684.6
2184.3586,27803.6
2185.0110,27779.6
2185.6633,27838.6
2186.3157,27786.6
2186.9678,27679.6
2187.6196,27703.6
2188.2715,27627.6
2188.9233,27734.6
2189.5750,27779.6
2190.2263,27706.6
2190.8777,27809.6
2191.5291,27701.6
2192.1802,27783.6
2192.8311,27715.6
2193.4819,27767.6
2194.1328,27866.6
2194.7834,27577.6
2195.4341,27723.6
2196.0845,27786.6
2196.7346,27619.6
2197.3850,27706.6
2198.0349,27763.6
2198.6848,27556.6
2199.3347,27626.6
2199.9844,27743.6
2200.6340,27720.6
2201.2834,27646.6
2201.9329,27743.6
2202.5820,27790.6
2203.2312,27673.6
2203.8801,27606.6
2204.5288,27699.6
2205.1777,27738.6
2205.8262,27699.6
2206.4749,27632.6
2207.1230,27519.6
2207.7715,27741.6
2208.4194,27561.6
2209.0676,27778.6
2209.7156,27713.6
2210.3633,27765.6
2211.0110,27693.6
2211.6584,27517.6
2212.3059,27762.6
2212.9531,27587.6
2213.6003,27527.6
2214.2473,27652.6
2214.8943,27611.6
2215.5413,27621.6
2216.1877,27638.6
2216.8345,27801.6
2217.4810,27689.6
2218.1272,27632.6
2218.7734,27415.6
2219.4197,27752.6
2220.0657,27723.6
2220.7114,27609.6
2221.3572,27591.6
2222.0029,27568.6
2222.6484,27529.6
2223.2937,27618.6
2223.9390,27563.6
2224.5842,27741.6
2225.2292,27584.6
2225.8740,27703.6
2226.5188,27599.6
2227.1636,27607.6
2227.8081,27670.6
2228.4526,27676.6
2229.0969,27462.6
2229.7410,27725.6
2230.3850,27769.6
2231.0291,27483.6
2231.6729,27636.6
2232.3167,27456.6
2232.9602,27542.6
2233.6038,27644.6
2234.2471,27552.6
2234.8904,27591.6
2235.5334,27528.6
2236.1765,27662.6
2236.8193,27555.6
2237.4622,27626.6
2238.1047,27556.6
2238.7473,27507.6
2239.3896,27581.6
2240.0320,27423.6
2240.6743,27400.6
2241.3164,27452.6
2241.9583,27638.6
2242.6001,27501.6
2243.2417,27436.6
2243.8833,27447.6
2244.5249,27575.6
2245.1663,27548.6
2245.8074,27469.6
2246.4485,27297.6
2247.0896,27377.6
2247.7305,27482.6
2248.3711,27410.6
2249.0117,27472.6
2249.6523,27442.6
2250.2927,27405.6
2250.9329,27506.6
2251.5730,27304.6
2252.2131,27325.6
2252.8530,27482.6
2253.4929,27324.6
2254.1326,27271.6
2254.7722,27379.6
2255.4116,27314.6
2256.0510,27317.6
2256.6902,27215.6
2257.3293,27447.6
2257.9683,27224.6
2258.6072,27420.6
2259.2458,27315.6
2259.8845,27365.6
2260.5229,27218.6
2261.1614,27185.6
2261.7996,27265.6
2262.4377,27222.6
2263.0759,27375.6
2263.7139,27296.6
2264.3516,27286.6
2264.9893,27267.6
2265.6270,27059.6
2266.2644,27250.6
2266.9016,27267.6
2267.5388,27005.6
2268.1760,27109.6
2268.8130,27208.6
2269.4497,27077.6
2270.0864,27194.6
2270.7231,27271.6
2271.3596,27188.6
2271.9961,27087.1
2272.6323,26985.6
2273.2686,27115.6
2273.9045,27233.6
2274.5405,27227.6
2275.1763,27080.6
2275.8120,27163.6
2276.4475,27069.6
2277.0830,27124.6
2277.7183,27155.6
2278.3535,27024.6
2278.9885,27022.6
2279.6235,27003.6
2280.2585,27201.6
2280.8931,27180.6
2281.5278,26998.6
2282.1624,26976.6
2282.7966,27143.6
2283.4309,27048.6
2284.0652,27026.6
2284.6992,26930.6
2285.3333,27104.6
2285.9670,27058.6
2286.6006,26937.6
2287.2341,26971.6
2287.8677,26885.6
2288.5010,26948.6
2289.1343,26983.6
2289.7673,26955.6
2290.4004,26916.6
2291.0332,26927.6
2291.6660,27045.6
2292.2986,27090.6
2292.9312,26871.6
2293.5635,26774.6
2294.1958,26942.6
2294.8279,26914.6
2295.4600,26898.6
2296.0920,26883.6
2296.7239,26921.6
2297.3555,26997.6
2297.9871,27019.6
2298.6187,26857.6
2299.2500,26856.6
2299.8811,27096.6
2300.5122,27016.6
2301.1433,26837.6
2301.7742,27025.6
2302.4050,27096.6
2303.0356,26914.6
2303.6660,26939.6
2304.2966,26840.6
2304.9268,26948.6
2305.5571,26936.6
2306.1870,27070.6
2306.8171,26843.6
2307.4470,26888.6
2308.0767,26965.6
2308.7063,26786.6
2309.3357,26910.6
2309.9651,26752.6
2310.5945,26885.6
2311.2234,26955.6
2311.8525,26855.6
2312.4814,26867.6
2313.1104,26786.6
2313.7390,26860.6
2314.3674,26907.6
2314.9958,26841.6
2315.6243,26911.6
2316.2524,26874.6
2316.8806,26836.6
2317.5085,26833.6
2318.1365,26933.6
2318.7642,26783.6
2319.3918,26907.6
2320.0193,26752.6
2320.6467,26813.6
2321.2739,26790.6
2321.9011,26899.6
2322.5283,26867.6
2323.1550,26945.6
2323.7820,26895.6
2324.4087,26868.6
2325.0352,26849.6
2325.6616,26955.6
2326.2881,26857.6
2326.9143,26953.6
2327.5405,26804.6
2328.1665,26759.6
2328.7925,26771.6
2329.4182,26858.6
2330.0437,26945.6
2330.6694,26885.6
2331.2947,26972.6
2331.9202,26968.6
2332.5454,26834.6
2333.1704,27095.6
2333.7954,26926.6
2334.4202,26787.6
2335.0449,26943.6
2335.6697,27060.6
2336.2942,26982.6
2336.9185,26821.6
2337.5427,26905.6
2338.1670,26962.6
2338.7910,26881.6
2339.4148,26880.6
2340.0388,26803.6
2340.6624,26833.6
2341.2859,27046.6
2341.9094,26931.6
2342.5327,26914.6
2343.1560,27043.6
2343.7793,27068.6
2344.4021,26961.6
2345.0251,26983.6
2345.6479,26976.6
2346.2705,26989.6
2346.8931,26932.6
2347.5156,27098.6
2348.1379,27057.6
2348.7600,26970.6
2349.3821,27056.6
2350.0042,26963.6
2350.6260,26981.6
2351.2478,26898.6
2351.8694,26953.6
2352.4910,26853.6
2353.1123,26995.6
2353.7336,26980.6
2354.3547,27035.6
2354.9758,27056.6
2355.5967,27040.6
2356.2175,27062.6
2356.8381,26929.6
2357.4587,26999.6
2358.0793,27003.6
2358.6997,27050.6
2359.3198,26927.6
2359.9402,26912.6
2360.5601,26930.6
2361.1799,26887.6
2361.7998,26971.6
2362.4194,26932.6
2363.0391,26889.6
2363.6584,26886.6
2364.2778,27047.6
2364.8970,26963.6
2365.5161,26913.6
2366.1353,27040.6
2366.7539,26812.6
2367.3728,26975.6
2367.9915,26995.6
2368.6099,27094.6
2369.2283,26882.6
2369.8467,26981.6
2370.4648,26936.6
2371.0830,27017.6
2371.7009,27041.6
2372.3188,27045.6
2372.9365,27006.6
2373.5542,27050.6
2374.1716,26806.6
2374.7891,27009.6
2375.4063,26872.6
2376.0234,26915.6
2376.6406,26852.6
2377.2576,26876.6
2377.8743,26932.6
2378.4910,27007.6
2379.1077,27016.6
2379.7241,26866.6
2380.3403,26838.6
2380.9568,26889.6
2381.5728,27016.6
2382.1887,26741.6
2382.8047,26973.6
2383.4207,26895.6
2384.0361,26826.6
2384.6519,26934.6
2385.2673,26952.6
2385.8826,26930.6
2386.4978,26869.6
2387.1130,26924.6
2387.7280,26981.6
2388.3428,26981.6
2388.9575,26895.6
2389.5723,26935.6
2390.1868,26691.6
2390.8013,26790.6
2391.4155,26879.6
2392.0298,26972.6
2392.6438,26970.6
2393.2578,26807.6
2393.8716,26946.6
2394.4854,26936.6
2395.0991,26951.6
2395.7126,26777.6
2396.3259,26819.6
2396.9392,26924.6
2397.5525,26929.6
2398.1655,26902.6
2398.7786,26888.6
2399.3914,26886.6
2400.0042,26773.6
2400.6167,26839.6
2401.2292,26826.6
2401.8416,26887.6
2402.4539,26955.6
2403.0659,26891.6
2403.6780,26859.6
2404.2900,26959.6
2404.9019,26810.6
2405.5134,26774.6
2406.1252,26882.6
2406.7366,26817.6
2407.3479,26875.6
2407.9592,26837.6
2408.5703,26821.6
2409.1814,26877.6
2409.7925,26932.6
2410.4031,26961.6
2411.0139,26974.6
2411.6245,26836.6
2412.2349,26805.6
2412.8452,26943.6
2413.4556,26872.6
2414.0657,26882.6
2414.6755,26812.6
2415.2856,26804.6
2415.8953,26775.6
2416.5051,26896.6
2417.1145,26744.6
2417.7241,26819.6
2418.3335,26876.6
2418.9426,26836.6
2419.5518,26872.6
2420.1606,26860.6
2420.7695,26785.6
2421.3784,26911.6
2421.9871,26702.6
2422.5957,26850.6
2423.2041,26858.6
2423.8123,26911.6
2424.4207,26895.6
2425.0286,26866.6
2425.6367,26865.6
2426.2446,26856.6
2426.8523,26898.6
2427.4600,26819.6
2428.0676,26846.6
2428.6750,26798.6
2429.2822,27008.6
2429.8894,26894.6
2430.4966,26867.6
2431.1035,26875.6
2431.7104,26926.6
2432.3171,26910.6
2432.9238,26801.6
2433.5303,27041.6
2434.1367,26930.6
2434.7429,26901.6
2435.3491,26964.6
2435.9553,26967.6
2436.5613,27003.6
2437.1672,26826.6
2437.7729,26971.6
2438.3784,26923.6
2438.9841,26886.6
2439.5894,26967.6
2440.1948,26849.6
2440.7998,26912.6
2441.4050,26929.6
2442.0100,26956.6
2442.6147,27032.6
2443.2195,26965.6
2443.8242,27029.6
2444.4287,26899.6
2445.0330,26959.6
2445.6375,27055.6
2446.2415,27120.6
2446.8457,26968.6
2447.4495,26979.6
2448.0535,27004.6
2448.6572,26996.6
2449.2607,27124.6
2449.8643,27032.6
2450.4675,27156.6
2451.0708,26921.6
2451.6741,27021.6
2452.2771,26936.6
2452.8801,27110.6
2453.4829,27087.6
2454.0857,27134.6
2454.6882,27103.6
2455.2908,27009.6
2455.8931,27052.6
2456.4954,27075.6
2457.0977,27080.6
2457.6997,27099.6
2458.3015,27056.6
2458.9036,27126.6
2459.5051,27240.6
2460.1067,27082.6
2460.7083,27216.6
2461.3096,27211.6
2461.9109,27124.6
2462.5122,27132.6
2463.1133,27013.6
2463.7141,27125.6
2464.3149,27131.6
2464.9158,27237.6
2465.5164,27156.6
2466.1167,27174.6
2466.7173,27306.6
2467.3174,27139.6
2467.9177,27313.6
2468.5176,27253.6
2469.1177,27252.6
2469.7175,27118.6
2470.3171,27109.6
2470.9167,27189.6
2471.5164,27173.6
2472.1157,27133.6
2472.7148,27223.6
2473.3142,27183.6
2473.9131,27252.6
2474.5122,27216.6
2475.1108,27254.6
2475.7097,27255.6
2476.3083,27168.6
2476.9067,27213.6
2477.5051,27240.6
2478.1035,27142.6
2478.7017,27291.6
2479.2998,27322.6
2479.8977,27189.6
2480.4954,27172.6
2481.0933,27251.6
2481.6909,27268.6
2482.2883,27345.6
2482.8857,27118.6
2483.4829,27281.6
2484.0801,27307.6
2484.6772,27220.6
2485.2742,27183.6
2485.8711,27313.6
2486.4678,27241.6
2487.0645,27261.6
2487.6609,27234.6
2488.2573,27342.6
2488.8535,27306.6
2489.4497,27222.6
2490.0459,27322.6
2490.6418,27261.6
2491.2375,27380.6
2491.8335,27276.6
2492.4290,27390.6
2493.0247,27224.6
2493.6199,27381.6
2494.2153,27361.6
2494.8105,27268.6
2495.4055,27310.6
2496.0005,27399.6
2496.5952,27169.6
2497.1902,27362.6
2497.7847,27323.6
2498.3792,27251.6
2498.9736,27234.6
2499.5679,27239.6
2500.1621,27414.6
2500.7563,27381.6
2501.3503,27272.6
2501.9441,27380.6
2502.5378,27333.6
2503.1316,27244.6
2503.7251,27261.6
2504.3184,27410.6
2504.9119,27294.6
2505.5049,27383.6
2506.0981,27270.6
2506.6912,27344.6
2507.2839,27299.6
2507.8767,27229.6
2508.4695,27327.6
2509.0620,27140.6
2509.6543,27198.6
2510.2466,27190.6
2510.8389,27333.6
2511.4309,27362.6
2512.0229,27385.6
2512.6150,27316.6
2513.2068,27277.6
2513.7983,27179.6
2514.3899,27270.6
2514.9814,27266.6
2515.5728,27367.6
2516.1641,27396.6
2516.7551,27329.6
2517.3462,27233.6
2517.9370,27295.6
2518.5278,27355.6
2519.1184,27423.6
2519.7090,27420.6
2520.2996,27309.6
2520.8899,27289.6
2521.4802,27306.6
2522.0703,27332.6
2522.6604,27401.6
2523.2502,27277.6
2523.8401,27363.6
2524.4297,27406.6
2525.0193,27332.6
2525.6089,27297.6
2526.1982,27348.6
2526.7874,27399.6
2527.3767,27289.6
2527.9656,27347.6
2528.5547,27340.6
2529.1433,27372.6
2529.7322,27360.6
2530.3208,27381.6
2530.9092,27437.6
2531.4976,27350.6
2532.0859,27230.6
2532.6741,27376.6
2533.2622,27211.6
2533.8501,27366.6
2534.4380,27306.6
2535.0256,27219.6
2535.6133,27227.6
2536.2009,27516.6
2536.7883,27295.6
2537.3755,27345.6
2537.9629,27404.6
2538.5498,27346.6
2539.1370,27417.6
2539.7236,27369.6
2540.3105,27472.6
2540.8972,27335.6
2541.4836,27460.6
2542.0701,27504.6
2542.6565,27384.6
2543.2427,27291.6
2543.8289,27384.6
2544.4148,27520.6
2545.0007,27512.6
2545.5864,27285.6
2546.1721,27580.6
2546.7576,27334.6
2547.3430,27368.6
2547.9285,27402.6
2548.5137,27436.6
2549.0989,27486.6
2549.6838,27488.6
2550.2688,27388.6
2550.8535,27552.6
2551.4382,27608.6
2552.0229,27508.6
2552.6074,27577.6
2553.1917,27389.6
2553.7761,27553.6
2554.3601,27450.6
2554.9441,27655.6
2555.5281,27635.6
2556.1121,27597.6
2556.6958,27498.6
2557.2793,27493.6
2557.8628,27688.6
2558.4463,27635.6
2559.0295,27739.6
2559.6128,27574.6
2560.1958,27602.6
2560.7788,27597.6
2561.3616,27517.6
2561.9443,27770.6
2562.5271,27777.6
2563.1096,27692.6
2563.6919,27601.6
2564.2742,27580.6
2564.8564,27626.6
2565.4385,27666.6
2566.0205,27684.6
2566.6025,27809.6
2567.1843,27696.6
2567.7659,27821.6
2568.3474,27755.6
2568.9290,27771.6
2569.5103,27862.6
2570.0916,27791.6
2570.6726,27758.6
2571.2537,27769.6
2571.8347,27673.6
2572.4155,27677.6
2572.9961,27808.6
2573.5767,27752.6
2574.1572,27835.6
2574.7375,27913.6
2575.3179,27825.6
2575.8979,27949.6
2576.4780,27963.6
2577.0581,27879.6
2577.6379,27875.6
2578.2175,27915.6
2578.7971,27917.6
2579.3767,28034.6
2579.9561,27938.6
2580.5354,27919.6
2581.1147,28017.6
2581.6938,27921.6
2582.2727,27927.6
2582.8516,27985.6
2583.4304,27968.6
2584.0090,28044.6
2584.5876,27997.6
2585.1660,27979.6
2585.7444,27932.6
2586.3225,28042.6
2586.9006,28066.6
2587.4788,28013.6
2588.0566,28272.6
2588.6345,28106.6
2589.2122,27914.6
2589.7898,28210.6
2590.3672,28108.6
2590.9446,28135.6
2591.5217,27966.6
2592.0989,28103.6
2592.6760,28145.6
2593.2529,28119.6
2593.8298,28007.6
2594.4065,28179.6
2594.9832,28183.6
2595.5598,28144.6
2596.1362,28159.6
2596.7124,28290.6
2597.2886,28027.6
2597.8647,28160.6
2598.4407,28171.6
2599.0166,28251.6
2599.5923,28304.6
2600.1680,28234.6
2600.7437,28285.6
2601.3191,28295.6
2601.8943,28333.6
2602.4695,28192.6
2603.0447,28267.6
2603.6196,28264.6
2604.1946,28230.6
2604.7695,28114.6
2605.3442,28209.6
2605.9187,28278.6
2606.4932,28293.6
2607.0676,28231.6
2607.6418,28305.6
2608.2161,28326.6
2608.7900,28216.6
2609.3640,28272.6
2609.9380,28340.6
2610.5117,28490.6
2611.0852,28213.6
2611.6589,28339.6
2612.2322,28304.6
2612.8057,28462.6
2613.3789,28393.6
2613.9519,28344.6
2614.5249,28382.6
2615.0979,28312.6
2615.6707,28371.6
2616.2432,28458.6
2616.8159,28507.6
2617.3882,28366.6
2617.9607,28386.6
2618.5330,28382.6
2619.1050,28397.6
2619.6770,28264.6
2620.2490,28473.6
2620.8208,28630.6
2621.3926,28367.6
2621.9641,28542.6
2622.5356,28375.6
2623.1072,28378.6
2623.6785,28490.6
2624.2495,28440.6
2624.8208,28502.6
2625.3916,28527.6
2625.9626,28528.6
2626.5332,28529.6
2627.1040,28392.6
2627.6746,28369.6
2628.2451,28543.6
2628.8154,28575.6
2629.3855,28456.6
2629.9558,28498.6
2630.5256,28477.6
2631.0957,28604.6
2631.6655,28731.6
2632.2351,28544.6
2632.8047,28531.6
2633.3743,28551.6
2633.9436,28408.6
2634.5129,28596.6
2635.0823,28564.6
2635.6511,28521.6
2636.2202,28574.6
2636.7891,28577.6
2637.3579,28502.6
2637.9265,28561.6
2638.4951,28698.6
2639.0635,28593.6
2639.6318,28586.6
2640.2000,28541.6
2640.7681,28517.6
2641.3362,28551.6
2641.9041,28514.6
2642.4719,28669.6
2643.0396,28579.6
2643.6072,28476.6
2644.1748,28588.6
2644.7422,28648.6
2645.3093,28522.6
2645.8765,28443.6
2646.4436,28740.6
2647.0105,28499.6
2647.5774,28574.6
2648.1443,28678.6
2648.7109,28590.6
2649.2773,28554.6
2649.8438,28775.6
2650.4102,28544.6
2650.9763,28587.6
2651.5425,28656.6
2652.1086,28623.6
2652.6746,28656.6
2653.2402,28613.6
2653.8059,28640.6
2654.3716,28713.6
2654.9370,28604.6
2655.5024,28527.6
2656.0679,28635.6
2656.6331,28749.6
2657.1980,28629.6
2657.7629,28651.6
2658.3279,28661.6
2658.8926,28631.6
2659.4573,28714.6
2660.0217,28564.6
2660.5862,28644.6
2661.1506,28841.6
2661.7148,28735.6
2662.2791,28556.6
2662.8430,28607.6
2663.4070,28602.6
2663.9707,28754.6
2664.5344,28657.6
2665.0981,28672.6
2665.6616,28576.6
2666.2249,28622.6
2666.7883,28734.6
2667.3513,28720.6
2667.9146,28569.6
2668.4775,28744.6
2669.0403,28671.6
2669.6030,28726.6
2670.1658,28720.6
2670.7283,28721.6
2671.2908,28772.6
2671.8533,28709.6
2672.4155,28601.6
2672.9775,28702.6
2673.5396,28513.6
2674.1016,28713.6
2674.6633,28665.6
2675.2251,28581.6
2675.7866,28715.6
2676.3481,28640.6
2676.9097,28653.6
2677.4709,28606.6
2678.0322,28640.6
2678.5933,28618.6
2679.1543,28706.6
2679.7151,28667.6
2680.2759,28597.6
2680.8367,28653.6
2681.3972,28550.6
2681.9575,28629.6
2682.5181,28713.6
2683.0784,28599.6
2683.6384,28605.6
2684.1985,28644.6
2684.7585,28746.6
2685.3184,28575.6
2685.8779,28658.6
2686.4377,28701.6
2686.9973,28612.6
2687.5566,28678.6
2688.1160,28569.6
2688.6753,28515.6
2689.2344,28797.6
2689.7932,28636.6
2690.3523,28513.6
2690.9111,28556.6
2691.4697,28725.6
2692.0283,28639.6
2692.5869,28480.6
2693.1453,28631.6
2693.7036,28626.6
2694.2617,28678.6
2694.8198,28633.6
2695.3777,28670.6
2695.9355,28549.6
2696.4934,28643.6
2697.0510,28702.6
2697.6086,28714.6
2698.1660,28681.6
2698.7234,28605.6
2699.2808,28653.6
2699.8379,28608.6
2700.3950,28605.6
2700.9519,28702.6
2701.5088,28490.6
2702.0654,28588.6
2702.6221,28598.6
2703.1785,28508.6
2703.7351,28551.6
2704.2913,28679.6
2704.8474,28536.6
2705.4036,28582.6
2705.9597,28595.6
2706.5156,28614.6
2707.0713,28557.6
2707.6270,28756.6
2708.1826,28722.6
2708.7380,28649.6
2709.2935,28541.6
2709.8489,28573.6
2710.4041,28543.6
2710.9590,28632.6
2711.5142,28612.6
2712.0688,28590.6
2712.6238,28481.6
2713.1785,28523.6
2713.7329,28673.6
2714.2874,28646.6
2714.8418,28588.6
2715.3960,28639.6
2715.9502,28603.6
2716.5042,28590.6
2717.0581,28586.6
2717.6121,28545.6
2718.1658,28473.6
2718.7192,28648.6
2719.2729,28651.6
2719.8264,28482.6
2720.3796,28364.6
2720.9329,28555.6
2721.4861,28570.6
2722.0391,28594.6
2722.5918,28644.6
2723.1448,28558.6
2723.6975,28553.6
2724.2500,28508.6
2724.8025,28531.6
2725.3550,28540.6
2725.9072,28588.6
2726.4595,28617.6
2727.0115,28432.6
2727.5635,28487.6
2728.1155,28524.6
2728.6672,28551.6
2729.2188,28425.6
2729.7705,28504.6
2730.3218,28503.6
2730.8733,28360.6
2731.4246,28380.6
2731.9756,28403.6
2732.5269,28599.6
2733.0776,28551.6
2733.6287,28441.6
2734.1794,28324.6
2734.7300,28286.6
2735.2805,28448.6
2735.8311,28523.6
2736.3813,28435.6
2736.9316,28418.6
2737.4817,28365.6
2738.0317,28290.6
2738.5818,28173.6
2739.1316,28511.6
2739.6812,28263.6
2740.2310,28461.6
2740.7805,28196.6
2741.3298,28351.6
2741.8792,28189.6
2742.4285,28273.6
2742.9775,28121.6
2743.5266,28299.6
2744.0754,28276.6
2744.6243,28242.6
2745.1729,28195.6
2745.7217,28270.6
2746.2700,28241.6
2746.8184,28277.6
2747.3667,28429.6
2747.9150,28207.6
2748.4631,28107.6
2749.0110,28178.6
2749.5588,28129.6
2750.1067,28153.6
2750.6545,28195.6
2751.2019,28416.6
2751.7495,28279.6
2752.2969,28287.6
2752.8442,28199.6
2753.3914,27972.6
2753.9385,28107.6
2754.4854,28149.6
2755.0322,28110.6
2755.5791,28132.6
2756.1257,28105.6
2756.6724,27906.6
2757.2188,28100.6
2757.7651,27975.6
2758.3113,27936.6
2758.8574,28054.6
2759.4036,28072.6
2759.9495,27831.6
2760.4954,27904.6
2761.0410,27997.6
2761.5867,28079.6
2762.1323,27999.6
2762.6777,27967.6
2763.2231,27967.6
2763.7683,27945.6
2764.3135,28063.6
2764.8586,28068.6
2765.4036,27903.6
2765.9482,28064.6
2766.4932,27946.6
2767.0376,28049.6
2767.5823,27901.6
2768.1267,27898.6
2768.6709,27961.6
2769.2151,27891.6
2769.7593,27668.6
2770.3035,27752.6
2770.8472,27790.6
2771.3911,27741.6
2771.9348,27727.6
2772.4785,27830.6
2773.0220,27647.6
2773.5654,27819.6
2774.1086,27736.6
2774.6519,27785.6
2775.1951,27703.6
2775.7380,27582.6
2776.2810,27710.6
2776.8237,27646.6
2777.3665,27691.6
2777.9092,27747.6
2778.4517,27543.6
2778.9939,27738.6
2779.5364,27741.6
2780.0784,27737.6
2780.6206,27797.6
2781.1626,27815.6
2781.7046,27794.6
2782.2463,27785.6
2782.7881,27790.6
2783.3296,27635.6
2783.8711,27804.6
2784.4124,27656.6
2784.9539,27719.6
2785.4949,27753.6
2786.0361,27583.6
2786.5769,27685.6
2787.1179,27791.6
2787.6587,27781.6
2788.1995,27681.6
2788.7400,27661.6
2789.2805,27600.6
2789.8208,27500.6
2790.3611,27777.6
2790.9014,27761.6
2791.4414,27603.6
2791.9814,27659.6
2792.5212,27635.6
2793.0610,27604.6
2793.6008,27762.6
2794.1404,27742.6
2794.6797,27619.6
2795.2192,27695.6
2795.7585,27649.6
2796.2976,27559.6
2796.8367,27650.6
2797.3757,27747.6
2797.9146,27661.6
2798.4534,27587.6
2798.9919,27687.6
2799.5305,27520.6
2800.0691,27610.6
2800.6074,27726.6
2801.1458,27582.6
2801.6838,27656.6
2802.2219,27729.6
2802.7598,27576.6
2803.2979,27620.6
2803.8354,27659.6
2804.3733,27634.6
2804.9106,27553.6
2805.4482,27546.6
2805.9856,27575.6
2806.5229,27606.6
2807.0601,27561.6
2807.5972,27661.6
2808.1340,27652.6
2808.6709,27707.6
2809.2078,27658.6
2809.7444,27630.6
2810.2810,27676.6
2810.8174,27803.6
2811.3538,27704.6
2811.8899,27770.6
2812.4263,27637.6
2812.9622,27742.6
2813.4983,27853.6
2814.0342,27726.6
2814.5698,27657.6
2815.1055,27685.6
2815.6411,27731.6
2816.1765,27856.6
2816.7119,27708.6
2817.2471,27742.6
2817.7822,27586.6
2818.3174,27728.6
2818.8523,27874.6
2819.3872,27713.6
2819.9219,27798.6
2820.4565,27813.6
2820.9912,27656.6
2821.5256,27611.6
2822.0601,27658.6
2822.5942,27733.6
2823.1284,27757.6
2823.6626,27933.6
2824.1965,27691.6
2824.7305,27727.6
2825.2642,27826.6
2825.7979,27983.6
2826.3313,27684.6
2826.8647,27863.6
2827.3982,27888.6
2827.9314,27807.6
2828.4646,27964.6
2828.9978,27774.6
2829.5308,27636.6
2830.0635,27758.6
2830.5962,27827.6
2831.1289,27818.6
2831.6616,27682.6
2832.1941,27676.6
2832.7263,27725.6
2833.2588,27889.6
2833.7908,27899.6
2834.3230,27780.6
2834.8550,27751.6
2835.3867,27837.6
2835.9185,27872.6
2836.4502,27856.6
2836.9817,27936.6
2837.5132,27884.6
2838.0447,27876.6
2838.5759,27820.6
2839.1072,27769.6
2839.6382,27719.6
2840.1692,28018.6
2840.7000,28027.6
2841.2307,27825.6
2841.7615,28098.6
2842.2920,27847.6
2842.8225,27898.6
2843.3530,27930.6
2843.8833,27960.6
2844.4133,27993.6
2844.9436,28005.6
2845.4736,28104.6
2846.0034,27950.6
2846.5332,28095.6
2847.0630,27891.6
2847.5925,28111.6
2848.1221,28109.6
2848.6514,28128.6
2849.1807,28133.6
2849.7100,28047.6
2850.2390,28143.6
2850.7681,28025.6
2851.2969,27999.6
2851.8257,28129.6
2852.3542,28019.6
2852.8831,27884.6
2853.4114,28143.6
2853.9399,28081.6
2854.4683,28148.6
2854.9963,28111.6
2855.5244,28201.6
2856.0525,28002.6
2856.5803,27984.6
2857.1082,28050.6
2857.6360,27983.6
2858.1636,28177.6
2858.6912,28141.6
2859.2185,28025.6
2859.7458,28053.6
2860.2729,28092.6
2860.8000,28106.6
2861.3271,28030.6
2861.8540,28171.6
2862.3809,28103.6
2862.9077,28130.6
2863.4343,28201.6
2863.9607,28095.6
2864.4873,28248.6
2865.0137,28141.6
2865.5398,28124.6
2866.0659,28120.6
2866.5920,28140.6
2867.1179,28107.6
2867.6438,28015.6
2868.1694,28106.6
2868.6951,28227.6
2869.2207,28028.6
2869.7461,28204.6
2870.2715,28173.6
2870.7966,28097.6
2871.3218,28134.6
2871.8469,28176.6
2872.3718,28135.6
2872.8967,28287.6
2873.4214,28317.6
2873.9460,28215.6
2874.4707,28150.6
2874.9951,28293.6
2875.5195,28081.6
2876.0439,28070.6
2876.5681,28258.6
2877.0920,28303.6
2877.6160,28208.6
2878.1399,28225.6
2878.6636,28150.6
2879.1873,28096.6
2879.7109,28329.6
2880.2344,28335.6
2880.7578,28160.6
2881.2810,28238.6
2881.8042,28205.6
2882.3274,28013.6
2882.8503,28244.6
2883.3733,28293.6
2883.8960,28084.6
2884.4187,28315.6
2884.9414,28431.6
2885.4639,28284.6
2885.9863,28271.6
2886.5085,28355.6
2887.0308,28180.6
2887.5530,28210.6
2888.0750,28381.6
2888.5969,28440.6
2889.1187,28261.6
2889.6404,28370.6
2890.1621,28189.6
2890.6836,28295.6
2891.2048,28338.6
2891.7263,28241.6
2892.2476,28187.6
2892.7686,28251.6
2893.2898,28338.6
2893.8105,28315.6
2894.3315,28309.6
2894.8523,28429.6
2895.3728,28227.6
2895.8933,28279.6
2896.4138,28386.6
2896.9343,28107.6
2897.4543,28180.6
2897.9746,28496.6
2898.4946,28427.6
2899.0146,28287.6
2899.5344,28430.6
2900.0542,28297.6
2900.5740,28298.6
2901.0935,28316.6
2901.6130,28258.6
2902.1323,28249.6
2902.6516,28469.6
2903.1709,28388.6
2903.6899,28348.6
2904.2090,28346.6
2904.7278,28474.6
2905.2466,28289.6
2905.7654,28289.6
2906.2839,28324.6
2906.8025,28233.6
2907.3208,28254.6
2907.8391,28378.6
2908.3574,28331.6
2908.8755,28258.6
2909.3936,28520.6
2909.9114,28239.6
2910.4292,28151.6
2910.9470,28487.6
2911.4646,28528.6
2911.9822,28248.6
2912.4995,28271.6
2913.0168,28376.6
2913.5342,28485.6
2914.0513,28517.6
2914.5684,28474.6
2915.0852,28278.6
2915.6021,28338.6
2916.1189,28525.6
2916.6355,28567.6
2917.1521,28449.6
2917.6685,28499.6
2918.1848,28468.6
2918.7012,28380.6
2919.2173,28692.6
2919.7334,28532.6
2920.2495,28631.6
2920.7654,28495.6
2921.2810,28608.6
2921.7969,28357.6
2922.3123,28460.6
2922.8279,28637.6
2923.3433,28583.6
2923.8586,28547.6
2924.3738,28588.6
2924.8889,28476.6
2925.4038,28479.6
2925.9187,28625.6
2926.4336,28426.6
2926.9482,28572.6
2927.4629,28683.6
2927.9775,28492.6
2928.4919,28546.6
2929.0063,28596.6
2929.5205,28626.6
2930.0347,28445.6
2930.5486,28691.6
2931.0627,28719.6
2931.5764,28561.6
2932.0903,28592.6
2932.6040,28712.6
2933.1174,28718.6
2933.6309,28746.6
2934.1443,28696.6
2934.6577,28646.6
2935.1709,28569.6
2935.6838,28613.6
2936.1968,28597.6
2936.7097,28690.6
2937.2224,28882.6
2937.7351,28640.6
2938.2478,28756.6
2938.7603,28597.6
2939.2727,28701.6
2939.7852,28652.6
2940.2974,28815.6
2940.8093,28873.6
2941.3213,28855.6
2941.8333,28850.6
2942.3452,28780.6
2942.8569,28738.6
2943.3687,28792.6
2943.8801,28892.6
2944.3916,28810.6
2944.9028,28998.6
2945.4141,28898.6
2945.9253,28815.6
2946.4363,28824.6
2946.9473,28859.6
2947.4583,28904.6
2947.9690,28911.6
2948.4797,28839.6
2948.9902,28937.6
2949.5007,29058.6
2950.0110,28828.6
2950.5215,28984.6
2951.0315,28861.6
2951.5417,28945.6
2952.0518,28938.6
2952.5615,29017.6
2953.0715,28889.6
2953.5811,28897.6
2954.0908,29071.6
2954.6003,28963.6
2955.1096,29010.6
2955.6191,29046.6
2956.1284,29040.6
2956.6375,28950.6
2957.1465,28901.6
2957.6555,29075.6
2958.1643,28901.6
2958.6731,28941.6
2959.1816,29205.6
2959.6902,29021.6
2960.1987,28923.6
2960.7073,29040.6
2961.2153,28925.6
2961.7236,29066.6
2962.2317,29176.6
2962.7397,29156.6
2963.2476,29041.6
2963.7554,29214.6
2964.2632,28897.6
2964.7708,28873.6
2965.2783,29135.6
2965.7856,29225.6
2966.2930,28988.6
2966.8003,29170.6
2967.3074,29091.6
2967.8145,29117.6
2968.3213,29151.6
2968.8281,29259.6
2969.3350,29198.6
2969.8416,29091.6
2970.3481,29257.6
2970.8547,29116.6
2971.3611,29158.6
2971.8674,29147.6
2972.3735,29144.6
2972.8796,29094.6
2973.3855,29121.6
2973.8916,29247.6
2974.3972,29138.6
2974.9031,29126.6
2975.4087,29101.6
2975.9141,29201.6
2976.4197,29106.6
2976.9248,29291.6
2977.4302,29221.6
2977.9353,29149.6
2978.4402,29086.6
2978.9453,29173.6
2979.4502,29224.6
2979.9548,29224.6
2980.4595,29357.6
2980.9641,29204.6
2981.4685,29219.6
2981.9729,29099.6
2982.4773,29104.6
2982.9814,29242.1
2983.4856,29379.6
2983.9895,29073.6
2984.4934,29163.6
2984.9973,29216.6
2985.5010,29114.6
2986.0046,29074.6
2986.5081,29176.6
2987.0115,29252.6
2987.5149,29282.6
2988.0181,29323.6
2988.5212,29217.6
2989.0242,29241.6
2989.5271,29274.6
2990.0300,29400.6
2990.5327,29269.6
2991.0354,29354.6
2991.5381,29387.6
2992.0405,29356.6
2992.5430,29178.6
2993.0452,29306.6
2993.5474,29184.6
2994.0496,29352.6
2994.5515,29383.6
2995.0535,29361.6
2995.5552,29277.6
2996.0569,29303.6
2996.5586,29257.6
2997.0601,29324.6
2997.5615,29377.6
2998.0630,29346.6
2998.5642,29330.6
2999.0654,29282.6
2999.5664,29385.6
3000.0674,29346.6
3000.5684,29213.6
3001.0691,29312.6
3001.5698,29273.6
3002.0703,29262.6
3002.5708,29295.6
3003.0713,29222.6
3003.5715,29273.6
3004.0718,29266.6
3004.5718,29337.6
3005.0718,29412.6
3005.5718,29245.6
3006.0715,29414.6
3006.5713,29326.6
3007.0710,29176.6
3007.5706,29354.6
3008.0701,29331.6
3008.5693,29382.6
3009.0686,29325.6
3009.5679,29467.6
3010.0669,29274.6
3010.5659,29344.6
3011.0647,29317.6
3011.5635,29483.6
3012.0623,29203.6
3012.5608,29420.6
3013.0593,29409.6
3013.5579,29377.6
3014.0562,29285.6
3014.5544,29335.6
3015.0525,29310.6
3015.5505,29343.6
3016.0486,29445.6
3016.5464,29365.6
3017.0442,29359.6
3017.5417,29344.6
3018.0393,29366.6
3018.5369,29295.6
3019.0344,29340.6
3019.5315,29469.6
3020.0288,29460.6
3020.5259,29333.6
3021.0229,29510.6
3021.5198,29523.6
3022.0166,29344.6
3022.5134,29444.6
3023.0100,29547.6
3023.5066,29495.6
3024.0029,29418.6
3024.4995,29585.6
3024.9956,29268.6
3025.4919,29457.6
3025.9878,29572.6
3026.4839,29427.6
3026.9797,29345.6
3027.4756,29549.6
3027.9712,29395.6
3028.4668,29218.6
3028.9624,29486.6
3029.4578,29545.6
3029.9531,29371.6
3030.4485,29422.6
3030.9436,29491.6
3031.4385,29411.6
3031.9336,29286.6
3032.4285,29395.6
3032.9231,29646.6
3033.4177,29331.6
3033.9124,29630.6
3034.4070,29546.6
3034.9014,29496.6
3035.3955,29531.6
3035.8899,29526.6
3036.3840,29560.6
3036.8779,29491.6
3037.3718,29629.6
3037.8657,29746.6
3038.3594,29420.6
3038.8530,29557.6
3039.3467,29588.6
3039.8401,29407.6
3040.3335,29660.6
3040.8267,29728.6
3041.3198,29643.6
3041.8130,29584.6
3042.3059,29606.6
3042.7988,29524.6
3043.2917,29445.6
3043.7844,29627.6
3044.2771,29730.6
3044.7695,29597.6
3045.2620,29660.6
3045.7544,29718.6
3046.2466,29598.6
3046.7388,29646.6
3047.2307,29570.6
3047.7229,29732.6
3048.2146,29604.6
3048.7065,29690.6
3049.1982,29725.6
3049.6897,29701.6
3050.1812,29635.6
3050.6726,29758.6
3051.1641,29609.6
3051.6553,29741.6
3052.1462,29889.6
3052.6375,29839.6
3053.1284,29660.6
3053.6191,29814.6
3054.1099,29787.6
3054.6006,29775.6
3055.0913,29847.6
3055.5818,29924.6
3056.1169,29945
3056.6636,30086
3057.2102,29864
3057.7568,29816
3058.3032,29728
3058.8496,29817
3059.3960,29900
3059.9421,29937
3060.4883,29920
3061.0342,30035
3061.5801,30040
3062.1257,29989
3062.6714,30030
3063.2168,29957
3063.7625,30024
3064.3076,30041
3064.8528,30101
3065.3979,29883
3065.9431,29908
3066.4880,29752
3067.0327,29962
3067.5774,30156
3068.1221,29888
3068.6667,30094
3069.2109,30060
3069.7554,29923
3070.2996,30090
3070.8438,30174
3071.3877,30131
3071.9316,30201
3072.4753,30043
3073.0190,30065
3073.5625,30180
3074.1062,30236
3074.6494,30329
3075.1929,30211
3075.7358,30062
3076.2791,30280
3076.8220,30209
3077.3647,30292
3077.9077,30289
3078.4502,30371
3078.9929,30435
3079.5354,30428
3080.0776,30223
3080.6199,30538
3081.1621,30359
3081.7041,30521
3082.2461,30560
3082.7878,30546
3083.3296,30533
3083.8713,30591
3084.4128,30606
3084.9543,30534
3085.4956,30686
3086.0369,30608
3086.5781,30519
3087.1191,30660
3087.6599,30734
3088.2009,30613
3088.7415,30695
3089.2822,30769
3089.8228,30866
3090.3630,30794
3090.9033,30770
3091.4436,30934
3091.9836,30666
3092.5237,30997
3093.0637,30996
3093.6035,30742
3094.1431,31006
3094.6829,31107
3095.2224,30996
3095.7617,31225
3096.3010,31208
3096.8401,31098
3097.3794,31170
3097.9182,31227
3098.4573,31221
3098.9958,31335
3099.5347,31273
3100.0732,31276
3100.6118,31389
3101.1501,31336
3101.6885,31339
3102.2266,31249
3102.7646,31458
3103.3027,31402
3103.8406,31358
3104.3782,31580
3104.9160,31559
3105.4536,31444
3105.9910,31495
3106.5283,31496
3107.0657,31620
3107.6028,31615
3108.1399,31644
3108.6768,31743
3109.2136,31665
3109.7505,31773
3110.2871,31655
3110.8237,31792
3111.3601,31746
3111.8965,31800
3112.4326,31775
3112.9688,31883
3113.5049,31869
3114.0408,31709
3114.5767,32049
3115.1125,31867
3115.6482,31879
3116.1836,31947
3116.7190,31927
3117.2544,32061
3117.7898,31955
3118.3247,31988
3118.8599,31939
3119.3948,31978
3119.9297,31948
3120.4644,31941
3120.9990,31925
3121.5334,31997
3122.0679,32129
3122.6023,32092
3123.1365,32047
3123.6707,32136
3124.2046,31921
3124.7385,32013
3125.2725,32142
3125.8062,32017
3126.3398,32066
3126.8733,31897
3127.4067,32061
3127.9402,32137
3128.4734,32034
3129.0063,32026
3129.5396,32258
3130.0723,32151
3130.6052,31981
3131.1379,32002
3131.6704,31901
3132.2031,31995
3132.7354,31930
3133.2678,31983
3133.8000,31859
3134.3320,31918
3134.8640,31784
3135.3960,31811
3135.9277,31812
3136.4595,32078
3136.9912,31924
3137.5227,31863
3138.0542,31783
3138.5854,31619
3139.1167,31761
3139.6477,31705
3140.1787,31567
3140.7097,31722
3141.2405,31681
3141.7712,31634
3142.3018,31527
3142.8323,31518
3143.3628,31545
3143.8931,31536
3144.4233,31568
3144.9534,31385
3145.4834,31496
3146.0132,31500
3146.5430,31399
3147.0728,31385
3147.6023,31449
3148.1318,31447
3148.6614,31265
3149.1907,31297
3149.7197,31159
3150.2488,31078
3150.7778,31267
3151.3069,31150
3151.8357,31184
3152.3643,31176
3152.8928,31167
3153.4214,31146
3153.9500,31027
3154.4783,30986
3155.0063,31103
3155.5344,30985
3156.0625,30824
3156.5903,30901
3157.1182,30721
3157.6460,30951
3158.1736,30816
3158.7009,30950
3159.2285,30764
3159.7556,30783
3160.2830,30755
3160.8101,30597
3161.3372,30828
3161.8640,30618
3162.3909,30734
3162.9175,30667
3163.4441,30478
3163.9707,30450
3164.4971,30503
3165.0234,30530
3165.5496,30436
3166.0757,30497
3166.6016,30552
3167.1277,30409
3167.6533,30351
3168.1792,30440
3168.7046,30255
3169.2302,30378
3169.7556,30461
3170.2810,30359
3170.8062,30238
3171.3313,30251
3171.8562,30135
3172.3813,30234
3172.9060,30364
3173.4307,30292
3173.9553,30067
3174.4800,30171
3175.0044,30050
3175.5286,29963
3176.0530,30266
3176.5769,30138
3177.1011,30021
3177.6250,30064
3178.1487,29977
3178.6726,29901
3179.1960,29972
3179.7197,30062
3180.2432,30098
3180.7664,30068
3181.2896,30009
3181.8127,30056
3182.3359,30052
3182.8586,29896
3183.3816,29866
3183.9043,30002
3184.4270,30050
3184.9495,29841
3185.4719,29822
3185.9944,29812
3186.5166,29836
3187.0386,29894
3187.5608,29843
3188.0828,29740
3188.6045,29840
3189.1262,29761
3189.6479,29642
3190.1694,29823
3190.6909,29817
3191.2122,29836
3191.7334,29785
3192.2546,29773
3192.7756,29701
3193.2966,29737
3193.8176,29687
3194.3384,29765
3194.8589,29743
3195.3794,29596
3195.8999,29626
3196.4204,29702
3196.9407,29585
3197.4607,29591
3197.9807,29754.5
3198.5007,29918
3199.0208,29615
3199.5405,29600
3200.0601,29500
3200.5796,29707
3201.0991,29667
3201.6187,29555
3202.1379,29603
3202.6570,29659
3203.1760,29617
3203.6951,29626
3204.2139,29433
3204.7327,29537
3205.2515,29452
3205.7700,29624
3206.2886,29808
3206.8069,29595
3207.3252,29492
3207.8435,29533
3208.3616,29315
3208.8796,29573
3209.3975,29485
3209.9153,29595
3210.4329,29386
3210.9507,29396
3211.4680,29544
3211.9856,29432
3212.5029,29348
3213.0200,29588
3213.5371,29448
3214.0542,29334
3214.5710,29342
3215.0879,29539
3215.6047,29376
3216.1213,29328
3216.6377,29533
3217.1543,29285
3217.6707,29411
3218.1868,29350
3218.7029,29463
3219.2190,29465
3219.7349,29359
3220.2507,29365
3220.7666,29501
3221.2822,29427
3221.7979,29416
3222.3132,29308
3222.8286,29270
3223.3438,29334
3223.8589,29379
3224.3740,29360
3224.8889,29481
3225.4038,29461
3225.9187,29142
3226.4333,29357
3226.9480,29281
3227.4624,29407
3227.9768,29420
3228.4910,29515
3229.0051,29203
3229.5193,29304
3230.0332,29442
3230.5471,29303
3231.0610,29553
3231.5747,29359
3232.0884,29505
3232.6018,29470
3233.1152,29309
3233.6284,29347
3234.1416,29106
3234.6548,29361
3235.1677,29347
3235.6807,29298
3236.1936,29184
3236.7063,29225
3237.2190,29225
3237.7314,29212
3238.2439,29421
3238.7561,29222
3239.2683,29334
3239.7805,29220
3240.2925,29206
3240.8044,29129
3241.3164,29216
3241.8281,29277
3242.3398,29367
3242.8513,29271
3243.3628,29135
3243.8743,29182
3244.3855,29200
3244.8965,29242
3245.4077,29224
3245.9187,29314
3246.4294,29209
3246.9402,29261
3247.4509,29134
3247.9614,29128
3248.4719,29103
3248.9824,29115
3249.4927,29168
3250.0029,29183
3250.5129,29049
3251.0229,29214
3251.5330,29127
3252.0427,29087
3252.5525,29208
3253.0620,29166
3253.5715,29150
3254.0811,28992
3254.5903,29156
3255.0996,28894
3255.6086,29088
3256.1177,29087
3256.6267,29102
3257.1355,29050
3257.6443,29059
3258.1528,29083
3258.6614,28968
3259.1699,28982
3259.6782,29133
3260.1865,29078
3260.6946,29059
3261.2026,28845
3261.7107,28954
3262.2185,28993
3262.7263,28891
3263.2341,29048
3263.7417,29036
3264.2490,29034
3264.7566,29079
3265.2637,28948
3265.7710,28871
3266.2781,28930
3266.7852,28903
3267.2920,28827
3267.7988,28924
3268.3054,28978
3268.8123,28816
3269.3186,28846
3269.8252,28750
3270.3315,28941
3270.8376,28813
3271.3438,29003
3271.8499,28886
3272.3557,28779
3272.8616,28938
3273.3674,28863
3273.8730,28860
3274.3787,28804
3274.8840,28881
3275.3894,28959
3275.8948,28788
3276.3999,28723
3276.9050,28870
3277.4099,28713
3277.9148,28804
3278.4197,28752
3278.9243,28689
3279.4290,28814
3279.9333,28823
3280.4377,28829
3280.9421,28663
3281.4463,28732
3281.9504,28810
3282.4546,28763
3282.9585,28573
3283.4622,28660
3283.9661,28530
3284.4697,28724
3284.9731,28715
3285.4766,28608
3285.9800,28622
3286.4832,28813
3286.9863,28541
3287.4895,28544
3287.9924,28633
3288.4954,28725
3288.9980,28755
3289.5007,28814
3290.0034,28586
3290.5059,28574
3291.0083,28721
3291.5105,28629
3292.0127,28658
3292.5149,28551
3293.0168,28622
3293.5188,28633
3294.0205,28535
3294.5222,28575
3295.0239,28481
3295.5254,28439
3296.0269,28548
3296.5283,28765
3297.0295,28540
3297.5308,28553
3298.0317,28513
3298.5327,28460
3299.0334,28521
3299.5344,28547
3300.0349,28609
3300.5356,28620
3301.0361,28541
3301.5364,28443
3302.0369,28437
3302.5369,28417
3303.0371,28533
3303.5371,28511
3304.0369,28527
3304.5369,28360
3305.0366,28463
3305.5361,28267
3306.0356,28511
3306.5352,28381
3307.0344,28384
3307.5337,28549
3308.0327,28411
3308.5320,28440
3309.0308,28410
3309.5298,28349
3310.0286,28404
3310.5271,28290
3311.0256,28500
3311.5242,28477
3312.0227,28367
3312.5210,28242
3313.0190,28414
3313.5171,28325
3314.0151,28398
3314.5132,28444
3315.0110,28541
3315.5088,28392
3316.0063,28255
3316.5039,28245
3317.0012,28328
3317.4985,28317
3317.9958,28463
3318.4929,28373
3318.9900,28304
3319.4871,28322
3319.9839,28394
3320.4807,28302
3320.9773,28280
3321.4739,28402
3321.9705,28311
3322.4668,28335
3322.9631,28296
3323.4595,28179
3323.9556,28181
3324.4514,28273
3324.9475,28369
3325.4434,28344
3325.9390,28380
3326.4346,28478
3326.9302,28206
3327.4255,28117
3327.9209,28326
3328.4163,28263
3328.9114,28364
3329.4065,28257
3329.9014,28364
3330.3962,28264
3330.8911,28142
3331.3857,28290
3331.8804,28064
3332.3750,28211
3332.8694,28277
3333.3638,28181
3333.8579,28230
3334.3521,28297
3334.8459,28150
3335.3401,28239
3335.8337,28294
3336.3276,28291
3336.8213,28267
3337.3147,28307
3337.8083,28253
3338.3018,28139
3338.7949,28036
3339.2881,28295
3339.7813,28154
3340.2742,28178
3340.7671,28215
3341.2600,28273
3341.7527,28210
3342.2454,28107
3342.7378,28197
3343.2302,28199
3343.7227,28208
3344.2148,28154
3344.7070,28074
3345.1990,28174
3345.6909,28087
3346.1829,28119
3346.6746,28222
3347.1663,28195
3347.6580,28299
3348.1494,28117
3348.6409,28046
3349.1321,28078
3349.6233,28167
3350.1143,28168
3350.6055,28279
3351.0964,28172
3351.5872,28193
3352.0779,28157
3352.5686,28042
3353.0591,28159
3353.5496,28041
3354.0400,28182
3354.5303,28069
3355.0203,28161
3355.5105,28176
3356.0005,28147
3356.4902,28126
3356.9802,28142
3357.4700,28068
3357.9595,28255
3358.4490,28130
3358.9385,28193
3359.4277,28047
3359.9170,28086
3360.4063,28041
3360.8953,28199
3361.3843,28158
3361.8730,28097
3362.3618,27965
3362.8506,28136
3363.3391,28155
3363.8276,28067
3364.3159,28174
3364.8042,28259
3365.2925,28143
3365.7805,28062
3366.2686,27994
3366.7566,27806
3367.2444,28102
3367.7322,28167
3368.2197,28064
3368.7073,28104
3369.1948,28035
3369.6821,28040
3370.1694,27929
3370.6567,27802
3371.1438,27983
3371.6309,28201
3372.1177,28102
3372.6045,28120
3373.0913,28102
3373.5779,28001
3374.0645,27967
3374.5508,27946
3375.0371,27987
3375.5234,28004
3376.0095,28138
3376.4956,27972
3376.9817,27974
3377.4675,27946
3377.9534,27913
3378.4390,27943
3378.9246,27944
3379.4102,27964
3379.8955,27825
3380.3809,27926
3380.8662,27980
3381.3513,27883
3381.8362,27951
3382.3213,27840
3382.8062,27892
3383.2908,27955
3383.7756,27822
3384.2600,27918
3384.7446,27904
3385.2290,27928
3385.7134,27850
3386.1975,27849
3386.6816,27834
3387.1658,27856
3387.6497,27918
3388.1333,27854
3388.6172,27897
3389.1008,27834
3389.5845,27969
3390.0679,27715
3390.5513,27853
3391.0344,27804
3391.5176,27826
3392.0007,27924
3392.4839,27789
3392.9668,27758
3393.4495,27634
3393.9324,27845
3394.4148,27850
3394.8975,27681
3395.3799,27616
3395.8623,27620
3396.3445,27801
3396.8267,27759
3397.3088,27686
3397.7908,27726
3398.2727,27749
3398.7544,27784
3399.2361,27704
3399.7178,27613
3400.1992,27679
3400.6807,27804
3401.1621,27633
3401.6433,27707
3402.1245,27631
3402.6055,27666
3403.0864,27406
3403.5674,27546
3404.0481,27575
3404.5288,27644
3405.0095,27731
3405.4900,27587
3405.9705,27609
3406.4507,27513
3406.9309,27454
3407.4111,27593
3407.8911,27502
3408.3711,27382
3408.8511,27632
3409.3308,27582
3409.8105,27591
3410.2900,27518
3410.7695,27475
3411.2490,27598
3411.7283,27565
3412.2075,27526
3412.6865,27547
3413.1655,27406
3413.6445,27306
3414.1235,27394
3414.6023,27507
3415.0808,27541
3415.5593,27601
3416.0378,27427
3416.5164,27405
3416.9946,27386
3417.4729,27454
3417.9509,27416
3418.4290,27504
3418.9070,27469
3419.3848,27404
3419.8625,27344
3420.3401,27416
3420.8176,27432
3421.2952,27194
3421.7725,27411
3422.2498,27522
3422.7271,27373
3423.2041,27411
3423.6812,27302
3424.1582,27163
3424.6350,27251
3425.1118,27337
3425.5884,27375
3426.0649,27254
3426.5413,27407
3427.0178,27328
3427.4941,27134
3427.9702,27084
3428.4463,27195
3428.9224,27340
3429.3982,27307
3429.8740,27178
3430.3499,27335
3430.8254,27270
3431.3010,27212
3431.7764,27342
3432.2520,27148
3432.7271,27128
3433.2024,27094
3433.6775,27191
3434.1523,27214
3434.6274,27079
3435.1021,27040
3435.5769,27108
3436.0515,26988
3436.5261,27043
3437.0005,27209
3437.4749,27145
3437.9492,26938
3438.4233,27123
3438.8975,27130
3439.3713,27043
3439.8455,27052
3440.3191,27201
3440.7930,27185
3441.2666,26996
3441.7400,27097
3442.2136,27107
3442.6868,27094
3443.1602,26979
3443.6333,27141
3444.1064,27139
3444.5793,27027
3445.0522,27150
3445.5251,26999
3445.9978,27024
3446.4705,27044
3446.9431,27095
3447.4155,27038
3447.8879,27003
3448.3601,27113
3448.8323,27074
3449.3044,27031
3449.7764,26986
3450.2483,27040
3450.7202,27038
3451.1919,26991
3451.6636,27134
3452.1350,27160
3452.6064,27021
3453.0779,26972
3453.5491,27000
3454.0203,26951
3454.4915,26979
3454.9624,27040
3455.4333,27019
3455.9041,26910
3456.3748,26940
3456.8455,26987
3457.3159,26877
3457.7864,26952
3458.2568,26960
3458.7271,26903
3459.1973,26911
3459.6675,26917
3460.1375,26895
3460.6072,26881
3461.0771,26887
3461.5469,26871
3462.0166,26912
3462.4861,26808
3462.9556,26964
3463.4248,26849
3463.8940,26949
3464.3633,26753
3464.8325,26856
3465.3015,27019
3465.7703,26872
3466.2393,26869
3466.7080,26920
3467.1765,26814
3467.6450,26793
3468.1135,27009
3468.5820,26954
3469.0503,26966
3469.5183,27017
3469.9866,26967
3470.4546,26871
3470.9224,26775
3471.3904,26809
3471.8579,26794
3472.3257,26764
3472.7932,26842
3473.2607,27009
3473.7280,26791
3474.1953,26753
3474.6626,26960
3475.1296,26789
3475.5967,26831
3476.0637,26828
3476.5305,26975
3476.9973,26848
3477.4639,26722
3477.9304,26735
3478.3970,26782
3478.8633,26819
3479.3296,26713
3479.7959,26875
3480.2620,26815
3480.7280,26706
3481.1938,26836
3481.6599,26857
3482.1255,26685
3482.5913,26712
3483.0569,27095
3483.5222,26795
3483.9878,26819
3484.4531,26786
3484.9182,26843
3485.3833,26669
3485.8484,26723
3486.3132,26814
3486.7783,26868
3487.2429,26798
3487.7078,26894
3488.1724,26763
3488.6367,26873
3489.1011,26752
3489.5654,26852
3490.0298,26940
3490.4939,26738
3490.9580,26885
3491.4219,26828
3491.8857,26663
3492.3496,26713
3492.8132,26775
3493.2769,26845
3493.7405,26602
3494.2039,26681
3494.6672,26716
3495.1304,26578
3495.5935,26558
3496.0566,26641
3496.5195,26684
3496.9824,26588
3497.4453,26605
3497.9080,26740
3498.3706,26672
3498.8333,26524
3499.2957,26574
3499.7581,26570
3500.2202,26663
3500.6824,26554
3501.1445,26773
3501.6064,26673
3502.0684,26731
3502.5303,26620
3502.9919,26702
3503.4536,26434
3503.9150,26533
3504.3765,26555
3504.8379,26615
3505.2993,26502
3505.7605,26610
3506.2214,26787
3506.6826,26491
3507.1436,26544
3507.6042,26621
3508.0649,26575
3508.5256,26485
3508.9863,26588
3509.4468,26630
3509.9072,26619
3510.3674,26380
3510.8276,26561
3511.2878,26688
3511.7478,26540
3512.2078,26507
3512.6677,26623
3513.1274,26432
3513.5872,26369
3514.0466,26509
3514.5061,26548
3514.9656,26277
3515.4248,26397
3515.8840,26554
3516.3433,26620
3516.8022,26391
3517.2612,26431
3517.7202,26609
3518.1790,26364
3518.6377,26294
3519.0962,26552
3519.5547,26505
3520.0132,26339
3520.4717,26212
3520.9299,26435
3521.3879,26304
3521.8462,26209
3522.3040,26387
3522.7620,26459
3523.2197,26401
3523.6775,26310
3524.1353,26380
3524.5928,26310
3525.0500,26164
3525.5076,26376
3525.9648,26366
3526.4219,26342
3526.8792,26335
3527.3362,26347
3527.7930,26205
3528.2498,26104
3528.7065,26216
3529.1633,26383
3529.6199,26184
3530.0764,26126
3530.5327,26361
3530.9890,26250
3531.4453,26001
3531.9014,26117
3532.3574,26334
3532.8135,26234
3533.2693,26206
3533.7251,26209
3534.1807,26279
3534.6362,26292
3535.0918,26062
3535.5474,26151
3536.0027,26293
3536.4578,25982
3536.9131,26268
3537.3682,26335
3537.8230,26096
3538.2778,26164
3538.7327,26271
3539.1875,26204
3539.6421,26172
3540.0967,26303
3540.5510,26388
3541.0054,26298
3541.4597,26150
3541.9138,26195
3542.3679,26244
3542.8220,26141
3543.2759,25972
3543.7297,26323
3544.1836,26210
3544.6372,25988
3545.0908,26020
3545.5442,26077
3545.9976,26117
3546.4509,25987
3546.9041,26030
3547.3572,26234
3547.8103,26015
3548.2632,25912
3548.7161,25949
3549.1689,26000
3549.6216,25908
3550.0742,26048
3550.5266,26050
3550.9792,26054
3551.4314,25943
3551.8838,26046
3552.3359,25988
3552.7881,25865
3553.2400,25854
3553.6919,25949
3554.1438,26033
3554.5955,25867
3555.0471,26051
3555.4985,25987
3555.9500,25894
3556.4014,25938
3556.8528,25917
3557.3040,26178
3557.7551,25934
3558.2061,26042
3558.6570,26096
3559.1079,25993
3559.5586,25799
3560.0093,25931
3560.4600,26027
3560.9104,26027
3561.3608,25902
3561.8110,26038
3562.2612,25863
3562.7114,25883
3563.1616,25740
3563.6116,25866
3564.0613,25887
3564.5112,25673
3564.9609,26004
3565.4104,25946
3565.8601,25839
3566.3096,25864
3566.7588,25932
3567.2080,25858
3567.6572,25696
3568.1064,25758
3568.5554,25943
3569.0044,25833
3569.4531,25834
3569.9019,25947
3570.3506,25826
3570.7991,25687
3571.2476,25904
3571.6960,26060
3572.1443,25966
3572.5925,25655
3573.0408,25870
3573.4888,26012
3573.9368,25755
3574.3845,25732
3574.8323,25846
3575.2800,25864
3575.7278,25702
3576.1753,25817
3576.6226,25837
3577.0701,25734
3577.5173,25707
3577.9644,25629
3578.4116,25832
3578.8586,25627
3579.3054,25718
3579.7522,25828
3580.1990,25815
3580.6458,25572
3581.0923,25559
3581.5388,25753
3581.9851,25850
3582.4314,25582
3582.8777,25863
3583.3237,25900
3583.7698,25770
3584.2158,25674
3584.6616,25804
3585.1074,25817
3585.5532,25698
3585.9988,25699
3586.4443,25978
3586.8896,25876
3587.3350,25671
3587.7803,25746
3588.2256,25764
3588.6707,25624
3589.1157,25613
3589.5605,25699
3590.0054,25735
3590.4502,25563
3590.8948,25545
3591.3394,25812
3591.7839,25689
3592.2283,25565
3592.6726,25588
3593.1167,25768
3593.5608,25658
3594.0049,25582
3594.4490,25874
3594.8928,25804
3595.3367,25584
3595.7803,25484
3596.2239,25777
3596.6675,25776
3597.1108,25580
3597.5542,25698
3597.9976,25605
3598.4407,25512
3598.8838,25514
3599.3269,25633
3599.7698,25691
3600.2126,25544
3600.6553,25503
3601.0979,25699
3601.5405,25568
3601.9832,25533
3602.4255,25476
3602.8677,25686
3603.3101,25596
3603.7522,25328
3604.1943,25519
3604.6362,25634
3605.0781,25608
3605.5200,25524
3605.9617,25645
3606.4033,25605
3606.8447,25439
3607.2864,25483
3607.7275,25715
3608.1689,25839
3608.6101,25516
3609.0513,25581
3609.4922,25633
3609.9331,25467
3610.3740,25474
3610.8147,25453
3611.2556,25648
3611.6960,25462
3612.1367,25650
3612.5771,25612
3613.0173,25453
3613.4575,25291
3613.8977,25501
3614.3379,25515
3614.7778,25582
3615.2178,25410
3615.6575,25635
3616.0974,25677
3616.5369,25368
3616.9766,25289
3617.4160,25570
3617.8555,25643
3618.2947,25457
3618.7339,25541
3619.1731,25517
3619.6121,25510
3620.0510,25339
3620.4900,25411
3620.9287,25416
3621.3674,25324
3621.8062,25498
3622.2446,25475
3622.6831,25525
3623.1213,25293
3623.5596,25332
3623.9978,25399
3624.4360,25361
3624.8740,25273
3625.3120,25464
3625.7498,25510
3626.1875,25339
3626.6252,25210
3627.0627,25269
3627.5002,25472
3627.9377,25200
3628.3750,25099
3628.8123,25313
3629.2495,25471
3629.6865,25240
3630.1235,25197
3630.5605,25420
3630.9973,25328
3631.4341,25064
3631.8706,25169
3632.3071,25223
3632.7437,25267
3633.1802,25089
3633.6165,25136
3634.0525,25235
3634.4888,25199
3634.9248,25029
3635.3608,25199
3635.7966,25231
3636.2324,25000
3636.6682,25062
3637.1038,25280
3637.5393,25016
3637.9749,24886
3638.4102,24953
3638.8455,25136
3639.2805,25172
3639.7158,25048
3640.1506,25158
3640.5857,25237
3641.0205,24975
3641.4553,24824
3641.8899,24921
3642.3247,25055
3642.7590,24817
3643.1936,24960
3643.6279,25107
3644.0620,24976
3644.4963,24784
3644.9304,24907
3645.3645,25090
3645.7983,24936
3646.2322,24868
3646.6660,24976
3647.0996,25039
3647.5332,24835
3647.9666,24887
3648.4001,24958
3648.8333,24857
3649.2666,24682
3649.6997,24787
3650.1328,24934
3650.5659,24912
3650.9988,24846
3651.4314,24741
3651.8643,24833
3652.2969,24601
3652.7295,24570
3653.1619,24746
3653.5942,24679
3654.0266,24671
3654.4587,24469
3654.8909,24734
3655.3230,24772
3655.7549,24439
3656.1868,24582
3656.6187,24540
3657.0503,24645
3657.4819,24592
3657.9136,24522
3658.3450,24729
3658.7764,24477
3659.2075,24369
3659.6389,24536
3660.0698,24513
3660.5010,24404
3660.9319,24375
3661.3628,24513
3661.7935,24524
3662.2241,24368
3662.6548,24356
3663.0854,24395
3663.5159,24405
3663.9460,24178
3664.3765,24379
3664.8066,24419
3665.2368,24450
3665.6667,24141
3666.0967,24272
3666.5266,24362
3666.9563,24219
3667.3860,24097
3667.8154,24414
3668.2451,24254
3668.6746,24090
3669.1038,24173
3669.5330,24207
3669.9622,24312
3670.3914,23931
3670.8203,24073
3671.2493,24250
3671.6780,24123
3672.1069,24021
3672.5354,24157
3672.9641,24115
3673.3926,23956
3673.8210,23904
3674.2493,23963
3674.6775,24163
3675.1057,23952
3675.5337,23912
3675.9617,24216
3676.3896,24101
3676.8174,23722
3677.2451,23831
3677.6729,23967
3678.1003,23972
3678.5278,23812
3678.9553,23917
3679.3826,24123
3679.8098,23856
3680.2371,23700
3680.6641,23816
3681.0911,23909
3681.5181,23643
3681.9448,23630
3682.3716,23814
3682.7981,23817
3683.2246,23639
3683.6511,23481
3684.0776,23641
3684.5039,23721
3684.9302,23515
3685.3562,23616
3685.7822,23880
3686.2083,23760
3686.6340,23596
3687.0601,23488
3687.4856,23598
3687.9114,23691
3688.3369,23333
3688.7622,23548
3689.1877,23666
3689.6130,23507
3690.0383,23365
3690.4634,23603
3690.8884,23488
3691.3135,23339
3691.7383,23325
3692.1631,23598
3692.5876,23437
3693.0125,23385
3693.4370,23261
3693.8613,23418
3694.2856,23437
3694.7100,23259
3695.1343,23318
3695.5583,23449
3695.9824,23525
3696.4065,23264
3696.8303,23323
3697.2542,23528
3697.6777,23279
3698.1013,23194
3698.5249,23148
3698.9485,23411
3699.3718,23513
3699.7952,23181
3700.2183,23404
3700.6414,23389
3701.0645,23110
3701.4873,22986
3701.9102,23270
3702.3330,23393
3702.7559,23107
3703.1785,23168
3703.6008,23222
3704.0234,23321
3704.4458,23173
3704.8679,23003
3705.2903,23023
3705.7124,23123
3706.1343,23017
3706.5564,22986
3706.9783,23208
3707.3999,23085
3707.8218,22812
3708.2434,22979
3708.6648,23091
3709.0864,23016
3709.5076,22776
3709.9290,22990
3710.3501,23147
3710.7712,23141
3711.1924,22860
3711.6133,23129
3712.0342,23017
3712.4548,22823
3712.8757,22878
3713.2964,22881
3713.7168,23058
3714.1372,22881
3714.5576,22838
3714.9780,22717
3715.3982,23095
3715.8184,22820
3716.2383,22730
3716.6582,22949
3717.0781,22969
3717.4978,22745
3717.9177,22794
3718.3372,23067
3718.7568,22873
3719.1763,22653
3719.5957,22806
3720.0149,22825
3720.4341,22742
3720.8533,22712
3721.2722,22847
3721.6912,22762
3722.1101,22866
3722.5288,22580
3722.9475,22694
3723.3662,22694
3723.7849,22662
3724.2034,22602
3724.6216,22821
3725.0400,22844
3725.4583,22712
3725.8762,22538
3726.2944,22723
3726.7124,22715
3727.1301,22575
3727.5481,22521
3727.9658,22484
3728.3833,22798
3728.8008,22563
3729.2183,22615
3729.6357,22761
3730.0530,22580
3730.4702,22444
3730.8875,22483
3731.3044,22708
3731.7214,22670
3732.1384,22508
3732.5552,22505
3732.6018,22342.8
3733.0601,22355.8
3733.5181,22357.8
3733.9761,22220.8
3734.4341,22397.8
3734.8921,22238.8
3735.3499,22380.8
3735.8074,22314.8
3736.2651,22169.8
3736.7227,22275.8
3737.1799,22290.8
3737.6375,22210.8
3738.0947,21957.8
3738.5518,22189.8
3739.0088,22383.8
3739.4658,22186.8
3739.9229,22174.8
3740.3796,22439.8
3740.8362,22125.8
3741.2930,22154.8
3741.7495,22222.8
3742.2058,22122.8
3742.6621,22066.8
3743.1184,22167.8
3743.5747,22236.8
3744.0308,22160.8
3744.4868,22121.8
3744.9426,22156.8
3745.3984,22072.8
3745.8542,22046.8
3746.3098,21974.8
3746.7654,22036.8
3747.2209,22187.8
3747.6763,21879.8
3748.1316,22155.8
3748.5869,22066.8
3749.0420,21851.8
3749.4971,21967.8
3749.9519,21975.8
3750.4067,22171.8
3750.8616,22077.8
3751.3162,22003.8
3751.7708,22093.8
3752.2253,21896.8
3752.6797,21937.8
3753.1340,21803.8
3753.5881,22002.8
3754.0425,21945.8
3754.4963,22062.8
3754.9504,21894.8
3755.4043,21820.8
3755.8582,21869.8
3756.3118,21865.8
3756.7654,22001.8
3757.2188,21941.8
3757.6724,21753.8
3758.1257,21793.8
3758.5789,21914.8
3759.0320,21858.8
3759.4851,21827.8
3759.9382,21711.8
3760.3911,21881.8
3760.8438,21758.8
3761.2966,21709.8
3761.7493,21703.8
3762.2017,21853.8
3762.6543,21634.8
3763.1067,21656.8
3763.5588,21638.8
3764.0110,21610.8
3764.4631,21898.8
3764.9153,21692.8
3765.3672,21702.8
3765.8188,21704.8
3766.2708,21663.8
3766.7224,21588.8
3767.1738,21551.8
3767.6255,21499.8
3768.0769,21562.8
3768.5281,21625.8
3768.9792,21710.8
3769.4304,21562.8
3769.8816,21477.8
3770.3325,21556.8
3770.7834,21659.8
3771.2341,21603.8
3771.6848,21328.8
3772.1355,21564.8
3772.5859,21697.8
3773.0364,21468.8
3773.4868,21468.8
3773.9370,21423.8
3774.3872,21509.8
3774.8372,21293.8
3775.2871,21508.8
3775.7371,21332.8
3776.1870,21363.8
3776.6367,21502.8
3777.0862,21332.8
3777.5359,21365.8
3777.9854,21183.8
3778.4346,21309.8
3778.8840,21440.8
3779.3333,21366.8
3779.7822,21409.8
3780.2312,21328.8
3780.6802,21554.8
3781.1292,21327.8
3781.5779,21209.8
3782.0266,21420.8
3782.4751,21403.8
3782.9236,21262.8
3783.3721,21326.8
3783.8203,21230.8
3784.2686,21022.8
3784.7168,21370.8
3785.1648,21069.8
3785.6128,21276.8
3786.0605,21118.8
3786.5083,20962.8
3786.9561,21308.8
3787.4038,21114.8
3787.8513,21065.8
3788.2986,21175.8
3788.7461,20861.8
3789.1934,20976.8
3789.6404,20980.8
3790.0876,21065.8
3790.5347,20916.8
3790.9814,20964.8
3791.4282,21077.8
3791.8750,20996.8
3792.3218,20999.8
3792.7683,20910.8
3793.2148,21102.8
3793.6611,21138.8
3794.1074,20928.8
3794.5537,21052.8
3794.9998,20763.8
3795.4458,20679.8
3795.8918,20731.8
3796.3376,20929.8
3796.7834,20892.8
3797.2292,20758.8
3797.6748,20953.8
3798.1204,20900.8
3798.5657,20823.8
3799.0110,20788.8
3799.4563,20654.8
3799.9014,20812.8
3800.3464,20770.8
3800.7915,20789.8
3801.2366,20638.8
3801.6812,20888.8
3802.1260,20854.8
3802.5706,20638.8
3803.0151,20732.8
3803.4597,20629.8
3803.9041,20750.8
3804.3484,20617.8
3804.7925,20673.8
3805.2368,20648.8
3805.6807,20591.8
3806.1248,20588.8
3806.5686,20624.8
3807.0122,20650.8
3807.4561,20275.8
3807.8997,20572.8
3808.3430,20525.8
3808.7866,20640.8
3809.2300,20672.8
3809.6731,20365.8
3810.1162,20276.8
3810.5593,20385.8
3811.0024,20368.8
3811.4453,20442.8
3811.8882,20424.8
3812.3308,20518.8
3812.7734,20304.8
3813.2161,20286.8
3813.6584,20376.8
3814.1008,20253.8
3814.5432,20358.8
3814.9854,20434.8
3815.4275,20508.8
3815.8696,20383.8
3816.3115,20115.8
3816.7534,20463.8
3817.1951,20315.8
3817.6367,20222.8
3818.0784,20220.8
3818.5200,20253.8
3818.9614,20272.8
3819.4026,20242.8
3819.8440,20364.8
3820.2852,20136.8
3820.7263,20241.8
3821.1672,20262.8
3821.6082,20320.8
3822.0488,20150.8
3822.4897,20245.8
3822.9304,20043.8
3823.3708,20096.8
3823.8113,20107.8
3824.2517,20078.8
3824.6921,19845.8
3825.1323,20111.8
3825.5725,20062.8
3826.0125,20057.8
3826.4524,20080.8
3826.8923,20153.8
3827.3320,19828.8
3827.7717,19914.8
3828.2114,19879.8
3828.6509,20079.8
3829.0903,20072.8
3829.5295,19932.8
3829.9690,20024.8
3830.4082,19919.8
3830.8472,19868.8
3831.2861,19804.8
3831.7251,19841.8
3832.1641,19775.8
3832.6028,19768.8
3833.0413,19934.8
3833.4800,19889.8
3833.9185,19940.8
3834.3569,19893.8
3834.7952,19803.8
3835.2334,20003.8
3835.6716,19636.8
3836.1096,19938.8
3836.5476,19943.8
3836.9854,19876.8
3837.4233,19628.8
3837.8608,19867.8
3838.2986,19977.8
3838.7361,19678.8
3839.1736,19749.8
3839.6108,19734.8
3840.0481,19903.8
3840.4854,19626.8
3840.9226,19823.8
3841.3596,19658.8
3841.7964,19681.8
3842.2334,19608.8
3842.6702,19491.8
3843.1067,19647.8
3843.5435,19602.8
3843.9800,19643.8
3844.4163,19791.8
3844.8525,19794.8
3845.2888,19637.8
3845.7251,19679.8
3846.1611,19566.8
3846.5972,19570.8
3847.0330,19561.8
3847.4688,19618.8
3847.9045,19653.8
3848.3401,19646.8
3848.7759,19593.8
3849.2112,19331.8
3849.6467,19469.8
3850.0820,19687.8
3850.5171,19499.8
3850.9524,19511.8
3851.3875,19588.8
3851.8223,19577.8
3852.2571,19513.8
3852.6919,19435.8
3853.1267,19471.8
3853.5613,19564.8
3853.9958,19490.8
3854.4302,19506.8
3854.8647,19490.8
3855.2988,19454.8
3855.7332,19511.8
3856.1672,19484.8
3856.6013,19292.8
3857.0352,19594.8
3857.4690,19390.8
3857.9028,19590.8
3858.3364,19469.8
3858.7700,19622.8
3859.2036,19494.8
3859.6370,19487.8
3860.0703,19338.8
3860.5037,19308.8
3860.9368,19363.8
3861.3699,19309.8
3861.8027,19529.8
3862.2356,19322.8
3862.6685,19393.8
3863.1013,19403.8
3863.5339,19304.8
3863.9666,19152.8
3864.3989,19371.8
3864.8313,19233.8
3865.2637,19431.8
3865.6958,19231.8
3866.1279,19420.8
3866.5601,19382.8
3866.9919,19303.8
3867.4238,19170.8
3867.8557,19298.8
3868.2874,19249.8
3868.7190,19192.8
3869.1506,19435.8
3869.5820,19323.8
3870.0134,19246.8
3870.4448,19203.8
3870.8760,19227.8
3871.3071,19361.8
3871.7380,19153.8
3872.1689,19258.8
3872.5999,19503.8
3873.0308,19311.8
3873.4614,19229.8
3873.8918,19333.8
3874.3225,19329.8
3874.7529,19143.8
3875.1833,19144.8
3875.6135,19171.8
3876.0437,19300.8
3876.4739,19350.8
3876.9038,19207.8
3877.3337,19228.8
3877.7637,19121.8
3878.1934,19193.8
3878.6230,19078.8
3879.0525,19225.8
3879.4822,19229.8
3879.9114,19210.8
3880.3408,19253.8
3880.7700,19037.8
3881.1992,19207.8
3881.6282,19160.8
3882.0574,19081.8
3882.4861,19002.8
3882.9150,19116.8
3883.3438,19185.8
3883.7725,19240.8
3884.2009,19118.8
3884.6294,19156.8
3885.0579,19052.8
3885.4861,19053.8
3885.9143,19130.8
3886.3425,19013.8
3886.7705,19148.8
3887.1985,19164.8
3887.6265,19134.8
3888.0542,19154.8
3888.4819,19007.8
3888.9097,19007.8
3889.3372,18933.8
3889.7646,19022.8
3890.1919,19065.8
3890.6194,19041.8
3891.0464,19090.8
3891.4736,18914.8
3891.9006,18876.8
3892.3276,18986.8
3892.7544,19042.8
3893.1814,18906.8
3893.6079,19042.8
3894.0347,19092.8
3894.4612,19087.8
3894.8877,18968.8
3895.3140,18952.8
3895.7402,18942.8
3896.1665,18845.8
3896.5925,18913.8
3897.0186,19043.8
3897.4446,19013.8
3897.8704,18989.8
3898.2961,18985.8
3898.7219,18949.8
3899.1475,18881.8
3899.5730,18870.8
3899.9985,18901.8
3900.4238,18879.8
3900.8491,18879.8
3901.2742,18802.8
3901.6992,18849.8
3902.1243,18845.8
3902.5493,18898.8
3902.9741,18740.8
3903.3989,18625.8
3903.8235,18736.8
3904.2480,18719.8
3904.6726,18825.8
3905.0972,18843.8
3905.5215,18873.8
3905.9458,18621.8
3906.3699,18548.8
3906.7939,18756.8
3907.2180,18776.8
3907.6418,18703.8
3908.0657,18712.8
3908.4895,18724.8
3908.9131,18815.8
3909.3367,18723.8
3909.7603,18653.8
3910.1836,18614.8
3910.6069,18566.8
3911.0303,18768.8
3911.4534,18621.8
3911.8765,18714.8
3912.2996,18707.8
3912.7224,18728.8
3913.1453,18596.8
3913.5679,18593.8
3913.9907,18637.8
3914.4133,18473.8
3914.8357,18518.8
3915.2581,18683.8
3915.6804,18587.8
3916.1028,18634.8
3916.5249,18583.8
3916.9470,18596.8
3917.3689,18491.8
3917.7908,18447.8
3918.2126,18369.8
3918.6343,18446.8
3919.0559,18642.8
3919.4775,18464.8
3919.8992,18390.8
3920.3206,18555.8
3920.7417,18478.8
3921.1631,18267.8
3921.5842,18464.8
3922.0054,18592.8
3922.4263,18502.8
3922.8472,18482.8
3923.2681,18472.8
3923.6887,18542.8
3924.1094,18366.8
3924.5300,18395.8
3924.9504,18382.8
3925.3708,18436.8
3925.7910,18411.8
3926.2114,18383.8
3926.6316,18403.8
3927.0515,18403.8
3927.4714,18301.8
3927.8914,18192.8
3928.3113,18253.8
3928.7310,18317.8
3929.1506,18258.8
3929.5703,18280.8
3929.9897,18364.8
3930.4092,18328.8
3930.8284,18230.8
3931.2476,18395.8
3931.6667,18327.8
3932.0859,18122.8
3932.5049,18135.8
3932.9238,18219.8
3933.3425,18328.8
3933.7612,18192.8
3934.1799,18121.8
3934.5984,18183.8
3935.0168,18162.8
3935.4353,18085.8
3935.8538,18039.8
3936.2720,18245.8
3936.6899,18187.8
3937.1082,18136.8
3937.5261,18081.8
3937.9441,18030.8
3938.3618,18173.8
3938.7795,17984.8
3939.1973,18023.8
3939.6147,17937.8
3940.0322,18095.8
3940.4497,18027.8
3940.8669,18001.8
3941.2842,18158.8
3941.7014,17987.8
3942.1184,17933.8
3942.5354,17839.8
3942.9521,17942.8
3943.3691,17932.8
3943.7859,17870.8
3944.2024,17870.8
3944.6189,17899.8
3945.0354,17940.8
3945.4519,17683.8
3945.8682,17850.8
3946.2844,17989.8
3946.7007,18071.8
3947.1167,17749.8
3947.5327,17973.8
3947.9485,18036.8
3948.3645,17860.8
3948.7800,17757.8
3949.1958,17857.8
3949.6113,17840.8
3950.0269,17851.8
3950.4421,17762.8
3950.8577,17895.8
3951.2727,17850.8
3951.6880,17784.8
3952.1030,17761.8
3952.5181,17844.8
3952.9329,17771.8
3953.3477,17667.8
3953.7625,17627.8
3954.1772,17725.8
3954.5918,17788.8
3955.0063,17739.8
3955.4207,17625.8
3955.8350,17622.8
3956.2493,17665.8
3956.6633,17628.8
3957.0774,17486.8
3957.4915,17579.8
3957.9053,17685.8
3958.3191,17612.8
3958.7329,17466.8
3959.1467,17653.8
3959.5603,17676.8
3959.9736,17488.8
3960.3872,17404.8
3960.8005,17510.8
3961.2136,17553.8
3961.6270,17456.8
3962.0400,17513.8
3962.4529,17530.8
3962.8660,17607.8
3963.2788,17425.8
3963.6914,17417.8
3964.1042,17500.8
3964.5168,17437.8
3964.9292,17496.8
3965.3418,17526.8
3965.7542,17463.8
3966.1663,17525.8
3966.5786,17378.8
3966.9907,17263.8
3967.4026,17355.8
3967.8147,17403.8
3968.2263,17437.8
3968.6382,17394.8
3969.0498,17569.8
3969.4614,17533.8
3969.8730,17393.8
3970.2844,17274.8
3970.6958,17368.8
3971.1072,17460.8
3971.5183,17340.8
3971.9294,17234.8
3972.3403,17412.8
3972.7515,17426.8
3973.1624,17415.8
3973.5730,17283.8
3973.9836,17398.8
3974.3943,17292.8
3974.8049,17182.8
3975.2153,17158.8
3975.6257,17512.8
3976.0359,17342.8
3976.4463,17167.8
3976.8564,17262.8
3977.2664,17252.8
3977.6763,17215.8
3978.0862,17060.8
3978.4961,17130.8
3978.9058,17283.8
3979.3154,17286.8
3979.7249,17175.8
3980.1343,17166.8
3980.5437,17176.8
3980.9531,17155.8
3981.3623,17069.8
3981.7715,17149.8
3982.1804,17279.8
3982.5894,17251.8
3982.9983,17125.8
3983.4072,17118.8
3983.8159,17274.8
3984.2246,17072.8
3984.6331,17059.8
3985.0415,17135.8
3985.4500,17132.8
3985.8584,17185.8
3986.2666,17056.8
3986.6748,17104.8
3987.0828,17296.8
3987.4907,17164.8
3987.8987,17114.8
3988.3066,17089.8
3988.7144,17206.8
3989.1221,17218.8
3989.5295,17146.8
3989.9370,17137.8
3990.3445,17259.8
3990.7517,17156.8
3991.1592,17085.8
3991.5662,16994.8
3991.9734,17121.8
3992.3804,17036.8
3992.7874,16960.8
3993.1941,17023.8
3993.6008,17181.8
3994.0076,17168.8
3994.4143,16922.8
3994.8208,17095.8
3995.2273,17069.8
3995.6335,17017.8
3996.0398,16957.8
3996.4460,17034.8
3996.8521,17041.8
3997.2581,17135.8
3997.6641,17028.8
3998.0701,16986.8
3998.4758,16962.8
3998.8816,16901.8
3999.2871,16907.8
3999.6926,16812.8
4000.0981,17083.8

##### Extended Information
[āRāüāōāgÅŅĢ±]
ÄÄŚ┐¢╝,
āRāüāōāg,
æ¬ÆĶÄę
ÅŖæ«
ē’Äą,Ģ║ī╔ī¦Ś¦æÕŖwæÕŖwē@ŹHŖwīżŗåē╚

[āfü[ā^ÅŅĢ±]
ŹņÉ¼ō·Ä×,2025/10/25 15:04

āfü[ā^ā^āCāv,ĢsōÖŖįŖuāfü[ā^
ēĪÄ▓,Raman Shift [cm-1]
ÅcÄ▓,Int.
āXā^ü[āg,999.935 cm-1
āGāōāh,4000.1 cm-1
āfü[ā^Éö,5263    

[æ¬ÆĶÅŅĢ±]
ŗ@ÄĒ¢╝,NRS-4500
āVāŖāAāŗöįŹå,C004261984

æ¬ÆĶō·Ä×,2025/10/25 14:55

śIī§Ä×Ŗį,1 sec
ÉŽÄZē±Éö,1
ÆåÉSögÉö,1618.53 cm-1
ZāXāeü[āWł╩Æu,14285.8 um
ārājāōāOÅŃī└,70
ārājāōāOē║ī└,129
ŚLī°ā`āāāōālāŗö═ł═,1 - 1650
Shift Speed,13 usecs
Readout Rate,1.48MHz at 16-bit
Pre-Amplifier Gain,1x
Enable Keep Cleans,ON
Baseline Clamp,OFF
CCD,DR32400_FI

ŚŃŗNögÆĘ,531.94 nm
Ģ¬ī§ŖĒ,āVāōāOāŗ
āOāīü[āeāBāōāO,L2400
āXāŖābāgĢØ,100 x 8000 um
āŖāWāFāNāVāćāōātāBāŗā^ü[,531.9 nm
Ģ¬ē­,4.35 cm-1, 0.70 cm-1/pixel
æ╬Ģ©āīāōāY,MPLFLN 100 x
BS/DM,BS 30/70
āīü[āUü[ŗŁōx,18.9 mW
īĖī§ŖĒ,100%(āIü[āvāō)
ēFÆłÉ³Å£ŗÄ,On
CCDēĘōx,-60.0 C
ögÉöāVātāg,-2.70 cm-1

