TITLE,
DATA TYPE,RAMAN SPECTRUM
ORIGIN,JASCO
OWNER,
DATE,25/10/25
TIME,14:47:12
SPECTROMETER/DATA SYSTEM,
LOCALE,1041
XUNITS,1/CM
YUNITS,INTENSITY
FIRSTX,  999.9351
LASTX, 4000.3774
NPOINTS,    5264
XYDATA
999.9351,2782
1000.7448,2761
1001.5543,2779
1002.3637,2767
1003.1730,2782
1003.9821,2812
1004.7911,2810
1005.5999,2820
1006.4086,2816
1007.2171,2828
1008.0255,2828
1008.8337,2833
1009.6418,2820
1010.4497,2849
1011.2575,2824
1012.0651,2831
1012.8726,2842
1013.6799,2877
1014.4871,2856
1015.2941,2861
1016.1010,2865
1016.9078,2894
1017.7144,2879
1018.5208,2855
1019.3271,2875
1020.1332,2903
1020.9392,2894
1021.7451,2913
1022.5508,2902
1023.3563,2910
1024.1617,2930
1024.9669,2901
1025.7721,2913
1026.5770,2895
1027.3818,2925
1028.1865,2920
1028.9910,2916
1029.7954,2915
1030.5996,2955
1031.4037,2939
1032.2075,2939
1033.0114,2967
1033.8149,2970
1034.6184,2965
1035.4218,2986
1036.2250,2995
1037.0280,2992
1037.8308,3020
1038.6335,2994
1039.4362,3014
1040.2386,3011
1041.0409,3004
1041.8430,3039
1042.6450,3024
1043.4469,3054
1044.2487,3028
1045.0502,3053
1045.8516,3077
1046.6528,3094
1047.4540,3093
1048.2549,3065
1049.0557,3084
1049.8564,3102
1050.6569,3078
1051.4573,3087
1052.2576,3133
1053.0576,3118
1053.8575,3129
1054.6573,3106
1055.4569,3142
1056.2565,3149
1057.0558,3158
1057.8550,3150
1058.6541,3170
1059.4529,3134
1060.2517,3165
1061.0503,3200
1061.8488,3157
1062.6471,3205
1063.4452,3175
1064.2433,3192
1065.0411,3185
1065.8389,3204
1066.6365,3186
1067.4338,3195
1068.2312,3221
1069.0283,3256
1069.8253,3250
1070.6222,3245
1071.4188,3251
1072.2155,3254
1073.0118,3282
1073.8081,3265
1074.6042,3285
1075.4001,3295
1076.1959,3301
1076.9917,3303
1077.7872,3306
1078.5825,3315
1079.3778,3356
1080.1729,3336
1080.9679,3309
1081.7627,3322
1082.5573,3330
1083.3518,3363
1084.1461,3379
1084.9403,3332
1085.7344,3364
1086.5283,3376
1087.3221,3359
1088.1157,3369
1088.9093,3414
1089.7026,3373
1090.4957,3418
1091.2888,3445
1092.0817,3421
1092.8745,3401
1093.6671,3398
1094.4596,3409
1095.2518,3416
1096.0441,3438
1096.8361,3432
1097.6279,3461
1098.4197,3447
1099.2113,3459
1100.0027,3418
1100.7939,3458
1101.5852,3451
1102.3762,3473
1103.1670,3485
1103.9578,3471
1104.7483,3501
1105.5387,3522
1106.3290,3505
1107.1191,3475
1107.9092,3489
1108.6990,3502
1109.4886,3526
1110.2782,3511
1111.0676,3512
1111.8569,3565
1112.6460,3501
1113.4351,3522
1114.2239,3536
1115.0126,3507
1115.8010,3530
1116.5895,3569
1117.3777,3551
1118.1658,3577
1118.9537,3533
1119.7416,3555
1120.5293,3567
1121.3168,3542
1122.1041,3561
1122.8914,3564
1123.6785,3598
1124.4655,3587
1125.2522,3579
1126.0389,3598
1126.8254,3570
1127.6118,3600
1128.3979,3626
1129.1841,3632
1129.9700,3614
1130.7559,3629
1131.5415,3600
1132.3269,3642
1133.1123,3623
1133.8976,3598
1134.6826,3656
1135.4675,3655
1136.2523,3660
1137.0370,3656
1137.8214,3612
1138.6058,3654
1139.3900,3652
1140.1741,3622
1140.9580,3671
1141.7417,3655
1142.5254,3686
1143.3088,3670
1144.0922,3673
1144.8754,3681
1145.6584,3690
1146.4414,3693
1147.2241,3729
1148.0067,3731
1148.7892,3748
1149.5715,3750
1150.3538,3709
1151.1359,3770
1151.9177,3742
1152.6995,3728
1153.4811,3775
1154.2626,3818
1155.0439,3770
1155.8251,3790
1156.6061,3799
1157.3871,3777
1158.1677,3823
1158.9484,3784
1159.7289,3801
1160.5092,3849
1161.2894,3872
1162.0695,3856
1162.8494,3829
1163.6290,3877
1164.4087,3876
1165.1881,3879
1165.9675,3879
1166.7467,3866
1167.5256,3904
1168.3046,3906
1169.0834,3944
1169.8619,3934
1170.6404,3924
1171.4187,3963
1172.1969,3948
1172.9750,3911
1173.7528,3962
1174.5306,3981
1175.3082,3972
1176.0857,4000
1176.8630,3984
1177.6401,4017
1178.4172,4003
1179.1941,3995
1179.9708,4042
1180.7476,4065
1181.5239,4048
1182.3003,4032
1183.0765,4040
1183.8525,4118
1184.6284,4054
1185.4042,4095
1186.1798,4096
1186.9553,4093
1187.7306,4072
1188.5057,4119
1189.2809,4119
1190.0558,4135
1190.8304,4178
1191.6051,4138
1192.3796,4169
1193.1539,4115
1193.9281,4164
1194.7021,4181
1195.4761,4219
1196.2499,4146
1197.0234,4175
1197.7970,4184
1198.5703,4238
1199.3435,4187
1200.1166,4262
1200.8895,4271
1201.6622,4250
1202.4349,4256
1203.2074,4268
1203.9797,4291
1204.7520,4310
1205.5240,4296
1206.2959,4262
1207.0677,4333
1207.8394,4281
1208.6108,4338
1209.3822,4346
1210.1534,4352
1210.9246,4369
1211.6954,4354
1212.4662,4361
1213.2369,4362
1214.0074,4342
1214.7777,4373
1215.5480,4411
1216.3181,4379
1217.0880,4396
1217.8578,4386
1218.6274,4456
1219.3970,4416
1220.1664,4421
1220.9357,4472
1221.7047,4529
1222.4736,4476
1223.2426,4483
1224.0112,4507
1224.7797,4460
1225.5481,4527
1226.3164,4540
1227.0845,4499
1227.8524,4531
1228.6202,4531
1229.3879,4549
1230.1555,4538
1230.9230,4560
1231.6902,4612
1232.4573,4615
1233.2244,4635
1233.9912,4614
1234.7578,4664
1235.5244,4645
1236.2909,4657
1237.0571,4640
1237.8232,4701
1238.5894,4675
1239.3551,4716
1240.1208,4729
1240.8865,4702
1241.6519,4739
1242.4172,4808
1243.1824,4808
1243.9474,4767
1244.7123,4815
1245.4771,4792
1246.2416,4791
1247.0061,4773
1247.7704,4827
1248.5345,4812
1249.2986,4868
1250.0625,4843
1250.8263,4877
1251.5900,4877
1252.3534,4905
1253.1167,4960
1253.8799,4960
1254.6429,4989
1255.4059,4977
1256.1687,4997
1256.9314,5010
1257.6938,5024
1258.4562,5020
1259.2184,5048
1259.9805,5137
1260.7424,5027
1261.5043,5152
1262.2660,5176
1263.0275,5131
1263.7888,5194
1264.5500,5165
1265.3112,5193
1266.0721,5216
1266.8330,5201
1267.5936,5232
1268.3542,5289
1269.1146,5289
1269.8749,5342
1270.6350,5273
1271.3950,5374
1272.1549,5395
1272.9147,5431
1273.6742,5406
1274.4336,5381
1275.1929,5433
1275.9520,5439
1276.7111,5526
1277.4700,5546
1278.2288,5540
1278.9873,5529
1279.7458,5665
1280.5042,5587
1281.2623,5593
1282.0204,5618
1282.7783,5659
1283.5360,5711
1284.2937,5729
1285.0511,5746
1285.8085,5783
1286.5657,5775
1287.3228,5879
1288.0797,5785
1288.8365,5856
1289.5931,5877
1290.3497,5863
1291.1061,5938
1291.8623,5909
1292.6184,5931
1293.3744,5933
1294.1302,5995
1294.8860,6000
1295.6415,6015
1296.3970,6056
1297.1522,6037
1297.9073,6108
1298.6624,6177
1299.4172,6162
1300.1719,6147
1300.9265,6218
1301.6809,6277
1302.4353,6288
1303.1895,6303
1303.9435,6282
1304.6974,6355
1305.4512,6394
1306.2047,6397
1306.9583,6402
1307.7115,6434
1308.4647,6490
1309.2179,6564
1309.9708,6535
1310.7235,6540
1311.4762,6692
1312.2288,6685
1312.9811,6669
1313.7334,6830
1314.4855,6779
1315.2374,6795
1315.9893,6826
1316.7410,6865
1317.4926,7050
1318.2439,7032
1318.9952,7101
1319.7463,7129
1320.4973,7229
1321.2482,7310
1321.9989,7406
1322.7495,7507
1323.5000,7633
1324.2502,7884
1325.0005,8162
1325.7505,8633
1326.5005,9717
1327.2502,11484
1327.9999,14360
1328.7493,17919
1329.4987,21211
1330.2479,23037
1330.9969,23056
1331.7460,20808
1332.4948,17679
1333.2434,14785
1333.9919,12421
1334.7404,10846
1335.4886,9755
1336.2367,9100
1336.9847,8641
1337.7325,8481
1338.4803,8351
1339.2279,8271
1339.9753,8190
1340.7227,8231
1341.4697,8176
1342.2168,8295
1342.9637,8333
1343.7104,8290
1344.4570,8326
1345.2036,8438
1345.9500,8455
1346.6962,8416
1347.4423,8463
1348.1881,8524
1348.9340,8510
1349.6796,8630
1350.4252,8683
1351.1705,8691
1351.9158,8697
1352.6609,8826
1353.4059,8926
1354.1508,8938
1354.8955,8996
1355.6400,9053
1356.3845,9138
1357.1288,9242
1357.8729,9296
1358.6169,9284
1359.3608,9370
1360.1046,9411
1360.8483,9576
1361.5917,9653
1362.3351,9666
1363.0782,9691
1363.8214,9811
1364.5643,9889
1365.3071,9889
1366.0498,10032
1366.7924,10062
1367.5348,10218
1368.2770,10298
1369.0192,10295
1369.7611,10394
1370.5031,10488
1371.2448,10628
1371.9863,10709
1372.7278,10756
1373.4691,10869
1374.2102,11005
1374.9513,11077
1375.6923,11114
1376.4330,11254
1377.1736,11217
1377.9141,11438
1378.6545,11515
1379.3948,11632
1380.1348,11773
1380.8748,11726
1381.6146,11892
1382.3542,12078
1383.0939,12073
1383.8333,12191
1384.5725,12281
1385.3118,12360
1386.0508,12475
1386.7897,12618
1387.5283,12657
1388.2670,12740
1389.0055,12872
1389.7438,13025
1390.4821,13132
1391.2201,13173
1391.9580,13322
1392.6958,13341
1393.4335,13497
1394.1710,13508
1394.9084,13648
1395.6456,13810
1396.3828,13842
1397.1198,14003
1397.8567,14044
1398.5934,14168
1399.3300,14227
1400.0664,14265
1400.8027,14429
1401.5389,14507
1402.2750,14609
1403.0109,14625
1403.7467,14730
1404.4823,14826
1405.2179,14942
1405.9532,14951
1406.6885,15062
1407.4236,15103
1408.1586,15176
1408.8934,15295
1409.6281,15351
1410.3627,15376
1411.0972,15476
1411.8314,15570
1412.5656,15620
1413.2997,15622
1414.0336,15664
1414.7673,15757
1415.5010,15766
1416.2345,15831
1416.9678,15863
1417.7010,15891
1418.4341,15886
1419.1671,16049
1419.8999,16017
1420.6327,15952
1421.3652,16053
1422.0977,16015
1422.8300,16067
1423.5621,16095
1424.2941,16079
1425.0260,16009
1425.7578,16050
1426.4894,16053
1427.2209,16091
1427.9523,16083
1428.6835,15938
1429.4146,15975
1430.1455,16079
1430.8763,16054
1431.6071,15933
1432.3376,15814
1433.0680,15821
1433.7983,15813
1434.5286,15919
1435.2585,15685
1435.9884,15696
1436.7181,15672
1437.4478,15722
1438.1772,15495
1438.9066,15514
1439.6359,15503
1440.3650,15371
1441.0940,15379
1441.8228,15313
1442.5515,15219
1443.2800,15117
1444.0084,15033
1444.7368,15049
1445.4650,14990
1446.1930,14881
1446.9209,14791
1447.6486,14777
1448.3762,14688
1449.1038,14725
1449.8311,14542
1450.5583,14463
1451.2854,14417
1452.0125,14345
1452.7393,14276
1453.4659,14215
1454.1925,14070
1454.9189,14035
1455.6453,13989
1456.3715,13893
1457.0974,13817
1457.8234,13736
1458.5492,13656
1459.2748,13531
1460.0002,13482
1460.7257,13416
1461.4509,13318
1462.1760,13203
1462.9010,13218
1463.6259,13145
1464.3506,13063
1465.0752,12997
1465.7996,12885
1466.5239,12843
1467.2482,12782
1467.9722,12723
1468.6960,12662
1469.4199,12562
1470.1436,12593
1470.8671,12454
1471.5905,12398
1472.3137,12322
1473.0369,12255
1473.7599,12178
1474.4827,12167
1475.2054,12063
1475.9281,11960
1476.6505,11967
1477.3729,11942
1478.0951,11842
1478.8171,11844
1479.5391,11740
1480.2609,11618
1480.9825,11644
1481.7041,11612
1482.4255,11528
1483.1469,11526
1483.8680,11443
1484.5890,11437
1485.3099,11324
1486.0306,11324
1486.7512,11217
1487.4718,11201
1488.1921,11206
1488.9124,11126
1489.6324,11080
1490.3524,10996
1491.0723,10914
1491.7920,10888
1492.5116,10882
1493.2310,10947
1493.9503,10879
1494.6696,10758
1495.3885,10793
1496.1074,10662
1496.8263,10732
1497.5449,10653
1498.2634,10698
1498.9818,10648
1499.7001,10597
1500.4182,10583
1501.1362,10426
1501.8541,10498
1502.5719,10385
1503.2894,10458
1504.0070,10418
1504.7242,10319
1505.4415,10418
1506.1586,10343
1506.8756,10293
1507.5924,10302
1508.3091,10244
1509.0256,10220
1509.7421,10238
1510.4584,10208
1511.1746,10141
1511.8906,10212
1512.6064,10123
1513.3223,10131
1514.0380,10024
1514.7534,10069
1515.4689,10064
1516.1841,10014
1516.8992,9994
1517.6143,9927
1518.3291,10006
1519.0438,9959
1519.7584,9891
1520.4729,9911
1521.1873,9859
1521.9015,9893
1522.6155,9884
1523.3295,9866
1524.0433,9830
1524.7570,9845
1525.4706,9770
1526.1840,9814
1526.8973,9770
1527.6105,9725
1528.3235,9725
1529.0365,9747
1529.7493,9738
1530.4619,9680
1531.1744,9636
1531.8868,9680
1532.5991,9751
1533.3112,9660
1534.0232,9636
1534.7351,9617
1535.4468,9587
1536.1584,9654
1536.8699,9621
1537.5813,9585
1538.2925,9620
1539.0035,9672
1539.7146,9565
1540.4254,9605
1541.1361,9615
1541.8467,9635
1542.5571,9601
1543.2675,9626
1543.9777,9613
1544.6877,9605
1545.3976,9612
1546.1074,9571
1546.8171,9585
1547.5266,9616
1548.2361,9570
1548.9453,9580
1549.6545,9525
1550.3635,9479
1551.0724,9536
1551.7811,9574
1552.4899,9479
1553.1984,9445
1553.9067,9477
1554.6150,9460
1555.3231,9439
1556.0310,9518
1556.7389,9425
1557.4467,9433
1558.1543,9403
1558.8617,9415
1559.5691,9401
1560.2762,9358
1560.9834,9362
1561.6903,9380
1562.3972,9397
1563.1039,9386
1563.8104,9426
1564.5168,9407
1565.2233,9377
1565.9294,9401
1566.6355,9430
1567.3414,9421
1568.0472,9376
1568.7528,9387
1569.4584,9453
1570.1638,9451
1570.8691,9402
1571.5742,9441
1572.2793,9335
1572.9843,9384
1573.6890,9413
1574.3937,9329
1575.0981,9325
1575.8025,9304
1576.5068,9354
1577.2109,9406
1577.9149,9305
1578.6188,9350
1579.3225,9403
1580.0261,9344
1580.7296,9387
1581.4330,9335
1582.1362,9415
1582.8394,9351
1583.5424,9362
1584.2451,9344
1584.9479,9377
1585.6505,9390
1586.3529,9348
1587.0553,9384
1587.7574,9402
1588.4596,9462
1589.1615,9438
1589.8634,9437
1590.5651,9503
1591.2666,9436
1591.9680,9451
1592.6693,9528
1593.3706,9436
1594.0717,9490
1594.7726,9457
1595.4734,9443
1596.1741,9509
1596.8745,9506
1597.5750,9457
1598.2753,9523
1598.9755,9580
1599.6754,9506
1600.3754,9577
1601.0752,9510
1601.7748,9591
1602.4744,9639
1603.1737,9594
1603.8730,9565
1604.5721,9586
1605.2712,9610
1605.9701,9667
1606.6688,9695
1607.3674,9647
1608.0659,9654
1608.7644,9702
1609.4626,9721
1610.1608,9776
1610.8588,9763
1611.5566,9662
1612.2544,9773
1612.9520,9748
1613.6494,9715
1614.3468,9772
1615.0441,9792
1615.7412,9848
1616.4381,9770
1617.1350,9843
1617.8318,9813
1618.5283,9810
1619.2249,9845
1619.9211,9765
1620.6174,9883
1621.3135,9940
1622.0094,9978
1622.7053,9943
1623.4010,9957
1624.0966,9899
1624.7920,10041
1625.4874,10012
1626.1826,9932
1626.8777,9993
1627.5726,9979
1628.2675,9993
1628.9622,10029
1629.6567,10039
1630.3512,10008
1631.0455,10048
1631.7397,10141
1632.4337,10049
1633.1277,10056
1633.8215,9998
1634.5153,10077
1635.2087,10132
1635.9022,10159
1636.5956,10132
1637.2887,10217
1637.9818,10142
1638.6747,10119
1639.3676,10212
1640.0602,10268
1640.7527,10244
1641.4452,10163
1642.1375,10275
1642.8296,10299
1643.5217,10275
1644.2136,10312
1644.9054,10279
1645.5970,10210
1646.2886,10368
1646.9801,10383
1647.6714,10350
1648.3625,10322
1649.0536,10299
1649.7445,10397
1650.4353,10444
1651.1260,10406
1651.8164,10366
1652.5068,10382
1653.1971,10451
1653.8873,10417
1654.5774,10516
1655.2672,10390
1655.9570,10463
1656.6467,10462
1657.3362,10462
1658.0256,10457
1658.7150,10398
1659.4041,10506
1660.0931,10488
1660.7820,10517
1661.4708,10558
1662.1594,10556
1662.8480,10551
1663.5364,10568
1664.2247,10546
1664.9128,10608
1665.6008,10606
1666.2887,10620
1666.9766,10596
1667.6642,10682
1668.3517,10665
1669.0391,10638
1669.7264,10636
1670.4136,10674
1671.1006,10672
1671.7875,10736
1672.4742,10679
1673.1609,10767
1673.8474,10681
1674.5338,10747
1675.2201,10663
1675.9063,10806
1676.5923,10763
1677.2782,10712
1677.9640,10721
1678.6497,10788
1679.3351,10838
1680.0205,10806
1680.7058,10794
1681.3910,10817
1682.0760,10804
1682.7609,10898
1683.4457,10882
1684.1304,10884
1684.8148,10923
1685.4993,10889
1686.1836,10866
1686.8677,10924
1687.5518,10956
1688.2356,10953
1688.9194,10908
1689.6030,10922
1690.2866,10950
1690.9700,10966
1691.6533,11040
1692.3364,11013
1693.0195,10987
1693.7024,11014
1694.3853,11067
1695.0679,11094
1695.7504,11049
1696.4329,11051
1697.1151,11122
1697.7972,11091
1698.4794,11194
1699.1613,11181
1699.8430,11151
1700.5247,11166
1701.2063,11172
1701.8877,11196
1702.5690,11244
1703.2501,11181
1703.9312,11224
1704.6121,11243
1705.2930,11309
1705.9736,11254
1706.6542,11275
1707.3346,11295
1708.0149,11286
1708.6951,11355
1709.3751,11399
1710.0551,11407
1710.7349,11318
1711.4146,11393
1712.0941,11387
1712.7736,11363
1713.4529,11391
1714.1321,11440
1714.8112,11518
1715.4901,11525
1716.1689,11461
1716.8477,11458
1717.5261,11523
1718.2046,11536
1718.8829,11518
1719.5612,11607
1720.2393,11602
1720.9172,11646
1721.5950,11617
1722.2727,11619
1722.9503,11578
1723.6278,11643
1724.3052,11647
1724.9823,11659
1725.6594,11676
1726.3364,11735
1727.0133,11718
1727.6899,11803
1728.3666,11735
1729.0431,11767
1729.7194,11778
1730.3956,11762
1731.0718,11756
1731.7477,11830
1732.4236,11843
1733.0994,11802
1733.7749,11872
1734.4504,11870
1735.1259,11973
1735.8010,11887
1736.4762,11888
1737.1512,11960
1737.8260,11934
1738.5009,11964
1739.1754,11948
1739.8500,11927
1740.5244,12044
1741.1986,12005
1741.8728,12031
1742.5468,12081
1743.2207,12088
1743.8944,12112
1744.5681,12068
1745.2417,12132
1745.9150,12125
1746.5884,12059
1747.2615,12063
1747.9346,12097
1748.6074,12305
1749.2803,12152
1749.9529,12118
1750.6255,12100
1751.2979,12198
1751.9702,12174
1752.6423,12180
1753.3145,12213
1753.9865,12258
1754.6582,12160
1755.3300,12192
1756.0015,12240
1756.6730,12260
1757.3442,12238
1758.0155,12273
1758.6865,12242
1759.3575,12238
1760.0283,12277
1760.6991,12364
1761.3696,12274
1762.0402,12290
1762.7104,12352
1763.3807,12325
1764.0508,12334
1764.7208,12317
1765.3906,12255
1766.0604,12346
1766.7300,12351
1767.3995,12378
1768.0688,12402
1768.7382,12436
1769.4072,12440
1770.0763,12338
1770.7451,12404
1771.4139,12352
1772.0825,12386
1772.7511,12421
1773.4196,12368
1774.0878,12331
1774.7560,12413
1775.4240,12449
1776.0919,12343
1776.7596,12367
1777.4274,12447
1778.0950,12490
1778.7623,12366
1779.4297,12406
1780.0968,12424
1780.7639,12473
1781.4308,12444
1782.0977,12517
1782.7644,12386
1783.4309,12480
1784.0974,12423
1784.7638,12395
1785.4299,12397
1786.0961,12370
1786.7621,12363
1787.4279,12380
1788.0936,12422
1788.7593,12451
1789.4247,12402
1790.0901,12464
1790.7554,12370
1791.4204,12384
1792.0854,12425
1792.7504,12494
1793.4152,12535
1794.0797,12450
1794.7443,12448
1795.4087,12510
1796.0730,12477
1796.7371,12556
1797.4011,12393
1798.0651,12389
1798.7289,12402
1799.3926,12446
1800.0560,12475
1800.7195,12505
1801.3828,12437
1802.0460,12443
1802.7091,12410
1803.3721,12414
1804.0349,12418
1804.6976,12461
1805.3602,12394
1806.0227,12463
1806.6849,12470
1807.3472,12518
1808.0093,12444
1808.6713,12512
1809.3331,12352
1809.9949,12493
1810.6566,12507
1811.3181,12486
1811.9795,12498
1812.6407,12442
1813.3019,12408
1813.9629,12424
1814.6238,12460
1815.2845,12420
1815.9452,12438
1816.6058,12423
1817.2662,12431
1817.9265,12389
1818.5867,12509
1819.2467,12492
1819.9067,12399
1820.5665,12526
1821.2262,12389
1821.8857,12517
1822.5453,12423
1823.2046,12408
1823.8638,12438
1824.5229,12392
1825.1819,12390
1825.8408,12486
1826.4995,12404
1827.1581,12391
1827.8167,12416
1828.4750,12432
1829.1333,12491
1829.7914,12424
1830.4495,12459
1831.1074,12448
1831.7651,12356
1832.4229,12488
1833.0803,12418
1833.7378,12481
1834.3951,12449
1835.0522,12397
1835.7094,12417
1836.3663,12428
1837.0231,12439
1837.6798,12387
1838.3364,12372
1838.9929,12392
1839.6493,12399
1840.3054,12475
1840.9615,12464
1841.6176,12401
1842.2734,12448
1842.9292,12448
1843.5848,12395
1844.2404,12482
1844.8958,12365
1845.5510,12432
1846.2062,12478
1846.8612,12418
1847.5161,12512
1848.1709,12409
1848.8256,12415
1849.4802,12465
1850.1346,12474
1850.7889,12516
1851.4431,12493
1852.0973,12375
1852.7512,12417
1853.4050,12419
1854.0588,12428
1854.7124,12383
1855.3658,12423
1856.0193,12418
1856.6725,12387
1857.3257,12476
1857.9786,12406
1858.6316,12371
1859.2843,12360
1859.9370,12298
1860.5895,12326
1861.2419,12428
1861.8943,12398
1862.5464,12425
1863.1985,12328
1863.8505,12392
1864.5023,12380
1865.1541,12344
1865.8055,12323
1866.4570,12354
1867.1084,12313
1867.7596,12304
1868.4108,12354
1869.0618,12451
1869.7126,12302
1870.3634,12335
1871.0140,12366
1871.6646,12302
1872.3149,12306
1872.9653,12338
1873.6155,12336
1874.2655,12326
1874.9154,12263
1875.5653,12305
1876.2150,12348
1876.8645,12352
1877.5140,12297
1878.1633,12299
1878.8125,12338
1879.4617,12289
1880.1106,12334
1880.7595,12253
1881.4083,12248
1882.0569,12277
1882.7054,12266
1883.3539,12196
1884.0021,12292
1884.6503,12273
1885.2983,12197
1885.9463,12268
1886.5940,12252
1887.2417,12203
1887.8893,12240
1888.5367,12151
1889.1841,12141
1889.8313,12173
1890.4784,12183
1891.1254,12245
1891.7723,12179
1892.4191,12159
1893.0657,12125
1893.7122,12154
1894.3585,12258
1895.0049,12156
1895.6510,12163
1896.2971,12058
1896.9430,12063
1897.5887,12122
1898.2345,12117
1898.8800,12094
1899.5255,12076
1900.1709,12090
1900.8160,12168
1901.4612,12107
1902.1062,12119
1902.7511,12069
1903.3958,12049
1904.0404,12036
1904.6849,12064
1905.3293,12085
1905.9736,12080
1906.6178,11990
1907.2618,12001
1907.9058,11963
1908.5496,11991
1909.1932,12038
1909.8369,11969
1910.4803,12003
1911.1237,11971
1911.7670,12004
1912.4100,12037
1913.0530,12000
1913.6959,11937
1914.3386,11885
1914.9813,11932
1915.6238,11986
1916.2662,12030
1916.9086,11972
1917.5507,11958
1918.1927,11906
1918.8347,11935
1919.4766,11948
1920.1183,11940
1920.7599,12032
1921.4014,11921
1922.0427,11931
1922.6840,12021
1923.3251,11933
1923.9661,12019
1924.6069,11904
1925.2477,11907
1925.8884,11982
1926.5289,11931
1927.1693,11930
1927.8097,11996
1928.4498,11898
1929.0900,11936
1929.7299,11862
1930.3698,11993
1931.0095,11890
1931.6490,11884
1932.2886,11967
1932.9280,11935
1933.5673,11901
1934.2064,11931
1934.8453,11966
1935.4843,11902
1936.1230,11949
1936.7618,11873
1937.4004,11955
1938.0388,11876
1938.6771,11887
1939.3153,11956
1939.9535,11862
1940.5914,11854
1941.2292,11952
1941.8671,11942
1942.5046,11867
1943.1422,11912
1943.7797,11933
1944.4169,11941
1945.0541,11944
1945.6912,11946
1946.3281,11944
1946.9648,11953
1947.6016,11974
1948.2382,11991
1948.8746,12004
1949.5110,11954
1950.1473,12079
1950.7834,11895
1951.4194,11946
1952.0553,11938
1952.6912,11980
1953.3268,11996
1953.9623,12037
1954.5978,12049
1955.2330,11990
1955.8683,11996
1956.5034,12024
1957.1383,11979
1957.7732,11988
1958.4080,11921
1959.0426,12023
1959.6771,11996
1960.3115,12057
1960.9458,12078
1961.5800,11971
1962.2140,12068
1962.8479,12061
1963.4817,12097
1964.1155,12058
1964.7490,12038
1965.3824,12050
1966.0159,12136
1966.6490,12071
1967.2822,12079
1967.9153,12109
1968.5481,12009
1969.1809,12134
1969.8136,12130
1970.4462,12141
1971.0786,12168
1971.7109,12124
1972.3431,12174
1972.9752,12179
1973.6072,12201
1974.2390,12158
1974.8707,12191
1975.5024,12107
1976.1339,12206
1976.7654,12164
1977.3966,12247
1978.0278,12232
1978.6588,12203
1979.2898,12239
1979.9207,12184
1980.5514,12230
1981.1819,12209
1981.8124,12263
1982.4427,12250
1983.0730,12155
1983.7031,12244
1984.3333,12289
1984.9631,12335
1985.5929,12332
1986.2225,12277
1986.8522,12192
1987.4816,12334
1988.1110,12314
1988.7401,12361
1989.3693,12309
1989.9983,12322
1990.6272,12320
1991.2559,12342
1991.8845,12309
1992.5131,12391
1993.1415,12290
1993.7698,12336
1994.3981,12376
1995.0261,12382
1995.6541,12379
1996.2819,12422
1996.9097,12322
1997.5372,12460
1998.1648,12380
1998.7921,12351
1999.4194,12410
2000.0466,12390
2000.6737,12406
2001.3005,12392
2001.9274,12375
2002.5541,12521
2003.1807,12431
2003.8073,12502
2004.4336,12444
2005.0598,12323
2005.6859,12436
2006.3120,12475
2006.9379,12458
2007.5637,12474
2008.1893,12380
2008.8149,12510
2009.4404,12482
2010.0657,12493
2010.6909,12512
2011.3160,12483
2011.9410,12511
2012.5659,12474
2013.1907,12484
2013.8154,12512
2014.4399,12475
2015.0643,12480
2015.6887,12434
2016.3129,12585
2016.9370,12483
2017.5609,12551
2018.1848,12497
2018.8086,12497
2019.4323,12515
2020.0557,12437
2020.6791,12581
2021.3024,12506
2021.9257,12497
2022.5487,12493
2023.1716,12545
2023.7944,12623
2024.4172,12548
2025.0398,12570
2025.6624,12568
2026.2847,12538
2026.9070,12569
2027.5292,12562
2028.1512,12651
2028.7731,12527
2029.3949,12545
2030.0166,12578
2030.6383,12570
2031.2598,12569
2031.8811,12603
2032.5023,12638
2033.1235,12616
2033.7445,12619
2034.3655,12625
2034.9862,12640
2035.6069,12641
2036.2275,12518
2036.8480,12649
2037.4684,12651
2038.0886,12630
2038.7087,12663
2039.3287,12671
2039.9486,12697
2040.5684,12642
2041.1881,12653
2041.8076,12665
2042.4271,12711
2043.0464,12651
2043.6656,12744
2044.2848,12658
2044.9038,12732
2045.5227,12798
2046.1415,12767
2046.7601,12681
2047.3787,12695
2047.9971,12744
2048.6155,12769
2049.2336,12746
2049.8518,12765
2050.4697,12699
2051.0876,12754
2051.7053,12685
2052.3230,12778
2052.9404,12754
2053.5579,12804
2054.1753,12747
2054.7925,12744
2055.4094,12857
2056.0266,12710
2056.6433,12778
2057.2600,12911
2057.8767,12769
2058.4932,12724
2059.1096,12817
2059.7261,12827
2060.3420,12955
2060.9583,12838
2061.5742,12802
2062.1899,12885
2062.8059,12837
2063.4214,12812
2064.0369,12959
2064.6523,12840
2065.2676,12836
2065.8828,12896
2066.4978,12859
2067.1128,12957
2067.7278,12903
2068.3423,12904
2068.9570,12991
2069.5715,12916
2070.1860,12917
2070.8003,13003
2071.4143,12910
2072.0283,12992
2072.6423,12991
2073.2561,13007
2073.8699,12997
2074.4836,12959
2075.0972,13015
2075.7104,13030
2076.3237,13080
2076.9368,13029
2077.5500,13056
2078.1628,13016
2078.7756,13080
2079.3884,13059
2080.0010,13026
2080.6135,13035
2081.2258,13083
2081.8381,13161
2082.4504,13094
2083.0625,13096
2083.6743,13126
2084.2861,13091
2084.8979,13154
2085.5095,13267
2086.1208,13107
2086.7324,13125
2087.3435,13223
2087.9548,13133
2088.5659,13208
2089.1768,13229
2089.7876,13159
2090.3982,13334
2091.0088,13255
2091.6194,13170
2092.2297,13339
2092.8401,13289
2093.4502,13278
2094.0603,13210
2094.6702,13317
2095.2800,13265
2095.8896,13211
2096.4993,13326
2097.1089,13266
2097.7183,13257
2098.3274,13301
2098.9365,13355
2099.5457,13308
2100.1545,13303
2100.7634,13384
2101.3721,13337
2101.9807,13290
2102.5894,13393
2103.1975,13406
2103.8059,13405
2104.4141,13367
2105.0222,13390
2105.6301,13423
2106.2378,13421
2106.8457,13487
2107.4531,13430
2108.0608,13353
2108.6680,13394
2109.2754,13446
2109.8826,13524
2110.4895,13541
2111.0964,13520
2111.7034,13451
2112.3101,13527
2112.9167,13358
2113.5232,13469
2114.1296,13431
2114.7358,13512
2115.3420,13469
2115.9480,13480
2116.5540,13427
2117.1599,13483
2117.7656,13504
2118.3711,13526
2118.9768,13510
2119.5820,13477
2120.1875,13505
2120.7925,13556
2121.3977,13534
2122.0027,13596
2122.6074,13412
2123.2122,13533
2123.8169,13498
2124.4214,13456
2125.0256,13547
2125.6299,13533
2126.2341,13519
2126.8384,13490
2127.4421,13550
2128.0461,13471
2128.6499,13542
2129.2534,13538
2129.8569,13492
2130.4604,13522
2131.0637,13552
2131.6670,13584
2132.2700,13567
2132.8730,13547
2133.4758,13562
2134.0786,13489
2134.6812,13490
2135.2837,13576
2135.8862,13518
2136.4885,13589
2136.7957,13508.5
2137.4570,13583.5
2138.1182,13576.5
2138.7793,13519.5
2139.4402,13560.5
2140.1011,13552.5
2140.7617,13544.5
2141.4224,13623.5
2142.0828,13563.5
2142.7432,13638.5
2143.4033,13521.5
2144.0635,13630.5
2144.7234,13652.5
2145.3833,13626.5
2146.0430,13588.5
2146.7024,13559.5
2147.3621,13566.5
2148.0212,13647.5
2148.6807,13621.5
2149.3396,13519.5
2149.9988,13627.5
2150.6575,13601.5
2151.3164,13609.5
2151.9749,13661.5
2152.6335,13648.5
2153.2917,13632.5
2153.9502,13596.5
2154.6082,13645.5
2155.2664,13655.5
2155.9241,13565.5
2156.5820,13660.5
2157.2395,13618.5
2157.8972,13589.5
2158.5544,13596.5
2159.2119,13601.5
2159.8689,13610.5
2160.5261,13556.5
2161.1829,13640.5
2161.8398,13619.5
2162.4963,13655.5
2163.1531,13613.5
2163.8096,13612.5
2164.4658,13603.5
2165.1221,13514.5
2165.7781,13512.5
2166.4341,13582.5
2167.0898,13683.5
2167.7456,13599.5
2168.4011,13578.5
2169.0566,13518.5
2169.7119,13655.5
2170.3672,13669.5
2171.0222,13681.5
2171.6772,13706.5
2172.3323,13580.5
2172.9868,13456.5
2173.6416,13658.5
2174.2961,13630.5
2174.9504,13577.5
2175.6047,13634.5
2176.2588,13562.5
2176.9128,13599.5
2177.5667,13649.5
2178.2205,13698.5
2178.8743,13729.5
2179.5276,13599.5
2180.1812,13664.5
2180.8345,13575.5
2181.4875,13709.5
2182.1406,13747.5
2182.7935,13635.5
2183.4463,13575.5
2184.0991,13656.5
2184.7517,13675.5
2185.4041,13734.5
2186.0564,13730.5
2186.7087,13700.5
2187.3608,13601.5
2188.0127,13585.5
2188.6646,13615.5
2189.3162,13665.5
2189.9678,13679.5
2190.6194,13649.5
2191.2708,13621.5
2191.9219,13637.5
2192.5730,13710.5
2193.2241,13682.5
2193.8750,13710.5
2194.5259,13619.5
2195.1765,13640.5
2195.8269,13659.5
2196.4773,13645.5
2197.1277,13710.5
2197.7778,13625.5
2198.4277,13629.5
2199.0779,13684.5
2199.7275,13586.5
2200.3772,13727.5
2201.0269,13719.5
2201.6763,13674.5
2202.3257,13618.5
2202.9749,13592.5
2203.6238,13674.5
2204.2729,13800.5
2204.9216,13658.5
2205.5703,13615.5
2206.2190,13671.5
2206.8674,13656.5
2207.5159,13703.5
2208.1641,13686.5
2208.8123,13713.5
2209.4602,13661.5
2210.1082,13645.5
2210.7559,13667.5
2211.4036,13664.5
2212.0510,13689.5
2212.6985,13616.5
2213.3457,13683.5
2213.9929,13677.5
2214.6399,13631.5
2215.2869,13723.5
2215.9338,13634.5
2216.5803,13614.5
2217.2271,13571.5
2217.8735,13773.5
2218.5198,13681.5
2219.1660,13690.5
2219.8120,13597.5
2220.4580,13694.5
2221.1040,13637.5
2221.7498,13614.5
2222.3953,13703.5
2223.0408,13747.5
2223.6860,13542.5
2224.3313,13629.5
2224.9766,13596.5
2225.6216,13745.5
2226.2664,13735.5
2226.9111,13731.5
2227.5559,13672.5
2228.2004,13638.5
2228.8450,13681.5
2229.4893,13615.5
2230.1333,13597.5
2230.7773,13698.5
2231.4214,13743.5
2232.0652,13630.5
2232.7090,13646.5
2233.3525,13605.5
2233.9961,13667.5
2234.6394,13751.5
2235.2825,13688.5
2235.9258,13701.5
2236.5686,13609.5
2237.2117,13690.5
2237.8542,13673.5
2238.4971,13700.5
2239.1394,13591.5
2239.7820,13721.5
2240.4241,13708.5
2241.0664,13611.5
2241.7085,13571.5
2242.3503,13656.5
2242.9922,13629.5
2243.6338,13652.5
2244.2754,13621.5
2244.9167,13626.5
2245.5581,13682.5
2246.1995,13598.5
2246.8406,13595.5
2247.4814,13639.5
2248.1223,13668.5
2248.7632,13661.5
2249.4038,13572.5
2250.0442,13535.5
2250.6846,13548.5
2251.3250,13593.5
2251.9651,13722.5
2252.6050,13657.5
2253.2449,13624.5
2253.8848,13578.5
2254.5244,13638.5
2255.1641,13613.5
2255.8035,13641.5
2256.4429,13689.5
2257.0820,13589.5
2257.7212,13557.5
2258.3601,13603.5
2258.9990,13646.5
2259.6377,13644.5
2260.2764,13592.5
2260.9148,13627.5
2261.5532,13530.5
2262.1914,13651.5
2262.8296,13621.5
2263.4675,13561.5
2264.1055,13574.5
2264.7432,13535.5
2265.3809,13511.5
2266.0186,13464.5
2266.6560,13587.5
2267.2932,13567.5
2267.9304,13526.5
2268.5676,13449.5
2269.2046,13537.5
2269.8413,13545.5
2270.4780,13548.5
2271.1147,13497.5
2271.7512,13497.5
2272.3877,13518.5
2273.0239,13541.5
2273.6599,13516.5
2274.2961,13565.5
2274.9319,13532.5
2275.5676,13567.5
2276.2034,13538.5
2276.8389,13510.5
2277.4744,13505.5
2278.1096,13525.5
2278.7449,13504.5
2279.3801,13436.5
2280.0149,13493.5
2280.6499,13504.5
2281.2847,13560.5
2281.9192,13567.5
2282.5537,13444.5
2283.1880,13386.5
2283.8223,13515.5
2284.4565,13505.5
2285.0906,13513.5
2285.7244,13552.5
2286.3582,13504.5
2286.9919,13462.5
2287.6255,13452.5
2288.2590,13486.5
2288.8923,13544.5
2289.5254,13473.5
2290.1584,13576.5
2290.7915,13421.5
2291.4243,13470.5
2292.0571,13536.5
2292.6897,13463.5
2293.3223,13597.5
2293.9546,13409.5
2294.5869,13431.5
2295.2190,13404.5
2295.8511,13493.5
2296.4832,13526.5
2297.1150,13452.5
2297.7466,13443.5
2298.3782,13533.5
2299.0095,13418.5
2299.6409,13416.5
2300.2722,13556.5
2300.9033,13535.5
2301.5342,13469.5
2302.1653,13412.5
2302.7959,13503.5
2303.4265,13581.5
2304.0571,13610.5
2304.6875,13445.5
2305.3179,13486.5
2305.9480,13589.5
2306.5781,13495.5
2307.2080,13559.5
2307.8379,13481.5
2308.4675,13448.5
2309.0972,13601.5
2309.7266,13498.5
2310.3560,13550.5
2310.9851,13412.5
2311.6143,13543.5
2312.2434,13526.5
2312.8723,13384.5
2313.5010,13424.5
2314.1296,13528.5
2314.7583,13572.5
2315.3867,13401.5
2316.0149,13469.5
2316.6433,13491.5
2317.2712,13475.5
2317.8992,13432.5
2318.5271,13533.5
2319.1548,13545.5
2319.7825,13486.5
2320.4099,13562.5
2321.0374,13469.5
2321.6646,13472.5
2322.2917,13522.5
2322.9187,13552.5
2323.5457,13350.5
2324.1726,13542.5
2324.7993,13533.5
2325.4258,13538.5
2326.0522,13539.5
2326.6787,13571.5
2327.3049,13502.5
2327.9309,13516.5
2328.5569,13453.5
2329.1829,13577.5
2329.8086,13521.5
2330.4343,13536.5
2331.0598,13506.5
2331.6853,13553.5
2332.3105,13516.5
2332.9358,13618.5
2333.5608,13514.5
2334.1858,13548.5
2334.8105,13584.5
2335.4353,13468.5
2336.0601,13652.5
2336.6843,13662.5
2337.3088,13602.5
2337.9331,13504.5
2338.5571,13628.5
2339.1814,13622.5
2339.8052,13617.5
2340.4290,13715.5
2341.0527,13615.5
2341.6763,13630.5
2342.2998,13532.5
2342.9231,13533.5
2343.5464,13567.5
2344.1694,13601.5
2344.7925,13673.5
2345.4153,13626.5
2346.0381,13657.5
2346.6606,13567.5
2347.2832,13699.5
2347.9058,13707.5
2348.5281,13687.5
2349.1501,13591.5
2349.7722,13637.5
2350.3943,13535.5
2351.0161,13668.5
2351.6377,13710.5
2352.2595,13653.5
2352.8809,13651.5
2353.5022,13542.5
2354.1235,13694.5
2354.7446,13586.5
2355.3657,13710.5
2355.9868,13651.5
2356.6074,13683.5
2357.2283,13603.5
2357.8489,13766.5
2358.4692,13684.5
2359.0896,13708.5
2359.7100,13627.5
2360.3301,13715.5
2360.9500,13629.5
2361.5698,13715.5
2362.1897,13661.5
2362.8093,13776.5
2363.4290,13740.5
2364.0483,13582.5
2364.6677,13611.5
2365.2869,13712.5
2365.9060,13724.5
2366.5249,13712.5
2367.1438,13641.5
2367.7625,13606.5
2368.3811,13690.5
2368.9998,13723.5
2369.6182,13732.5
2370.2363,13717.5
2370.8547,13657.5
2371.4727,13622.5
2372.0906,13699.5
2372.7085,13751.5
2373.3262,13678.5
2373.9438,13724.5
2374.5613,13702.5
2375.1787,13558.5
2375.7959,13671.5
2376.4131,13747.5
2377.0300,13701.5
2377.6470,13673.5
2378.2639,13736.5
2378.8806,13654.5
2379.4971,13702.5
2380.1135,13709.5
2380.7300,13781.5
2381.3462,13639.5
2381.9624,13691.5
2382.5784,13732.5
2383.1943,13725.5
2383.8101,13827.5
2384.4258,13713.5
2385.0413,13748.5
2385.6567,13624.5
2386.2720,13701.5
2386.8872,13663.5
2387.5024,13683.5
2388.1174,13792.5
2388.7322,13774.5
2389.3469,13750.5
2389.9617,13728.5
2390.5762,13634.5
2391.1907,13739.5
2391.8049,13760.5
2392.4192,13705.5
2393.0332,13724.5
2393.6472,13779.5
2394.2610,13692.5
2394.8748,13715.5
2395.4883,13766.5
2396.1018,13753.5
2396.7153,13685.5
2397.3286,13632.5
2397.9417,13718.5
2398.5547,13821.5
2399.1677,13833.5
2399.7805,13648.5
2400.3933,13717.5
2401.0059,13757.5
2401.6184,13751.5
2402.2307,13788.5
2402.8430,13753.5
2403.4551,13768.5
2404.0671,13724.5
2404.6792,13687.5
2405.2910,13801.5
2405.9026,13753.5
2406.5142,13777.5
2407.1257,13818.5
2407.7371,13791.5
2408.3484,13709.5
2408.9595,13767.5
2409.5706,13792.5
2410.1814,13844.5
2410.7922,13758.5
2411.4028,13802.5
2412.0134,13792.5
2412.6238,13758.5
2413.2341,13860.5
2413.8445,13795.5
2414.4546,13846.5
2415.0645,13770.5
2415.6746,13794.5
2416.2842,13770.5
2416.8938,13851.5
2417.5034,13857.5
2418.1128,13834.5
2418.7222,13798.5
2419.3315,13758.5
2419.9404,13810.5
2420.5496,13930.5
2421.1584,13814.5
2421.7671,13848.5
2422.3757,13852.5
2422.9844,13759.5
2423.5928,13857.5
2424.2012,13853.5
2424.8093,13934.5
2425.4175,13851.5
2426.0254,13846.5
2426.6333,13841.5
2427.2410,13881.5
2427.8486,13848.5
2428.4561,13868.5
2429.0635,13812.5
2429.6709,13774.5
2430.2781,13838.5
2430.8853,13921.5
2431.4922,13864.5
2432.0989,13862.5
2432.7058,13788.5
2433.3123,13907.5
2433.9189,13936.5
2434.5251,13949.5
2435.1316,13900.5
2435.7378,14040.5
2436.3438,13923.5
2436.9497,13883.5
2437.5557,13843.5
2438.1614,13766.5
2438.7668,14018.5
2439.3726,13966.5
2439.9778,13822.5
2440.5833,13943.5
2441.1882,13901.5
2441.7935,13997.5
2442.3984,14026.5
2443.0032,14032.5
2443.6079,14039.5
2444.2124,13887.5
2444.8169,13965.5
2445.4214,13954.5
2446.0256,13987.5
2446.6299,13957.5
2447.2339,14024.5
2447.8379,13926.5
2448.4417,13970.5
2449.0454,14082.5
2449.6489,14081.5
2450.2524,14094.5
2450.8560,13987.5
2451.4592,14033.5
2452.0623,13981.5
2452.6653,14072.5
2453.2683,14020.5
2453.8711,14157.5
2454.4739,14018.5
2455.0764,14036.5
2455.6790,14105.5
2456.2813,13990.5
2456.8835,14090.5
2457.4858,14169.5
2458.0876,14066.5
2458.6897,14096.5
2459.2915,14077.5
2459.8933,14063.5
2460.4949,14181.5
2461.0964,14122.5
2461.6978,14252.5
2462.2991,14103.5
2462.9001,14105.5
2463.5012,14177.5
2464.1021,14134.5
2464.7029,14190.5
2465.3037,14080.5
2465.9043,14121.5
2466.5046,14200.5
2467.1050,14134.5
2467.7053,14175.5
2468.3054,14124.5
2468.9055,14310.5
2469.5054,14157.5
2470.1052,14178.5
2470.7051,14205.5
2471.3047,14268.5
2471.9041,14201.5
2472.5034,14181.5
2473.1028,14165.5
2473.7019,14143.5
2474.3010,14214.5
2474.8999,14208.5
2475.4988,14228.5
2476.0974,14235.5
2476.6960,14168.5
2477.2944,14179.5
2477.8928,14183.5
2478.4912,14230.5
2479.0894,14276.5
2479.6873,14258.5
2480.2854,14212.5
2480.8831,14282.5
2481.4810,14279.5
2482.0784,14308.5
2482.6760,14361.5
2483.2734,14303.5
2483.8706,14269.5
2484.4678,14210.5
2485.0649,14266.5
2485.6619,14296.5
2486.2585,14346.5
2486.8552,14310.5
2487.4519,14290.5
2488.0483,14188.5
2488.6448,14222.5
2489.2412,14287.5
2489.8372,14354.5
2490.4333,14347.5
2491.0293,14360.5
2491.6250,14240.5
2492.2209,14344.5
2492.8164,14346.5
2493.4119,14364.5
2494.0073,14340.5
2494.6025,14316.5
2495.1978,14274.5
2495.7930,14270.5
2496.3879,14416.5
2496.9827,14446.5
2497.5774,14411.5
2498.1721,14403.5
2498.7666,14320.5
2499.3611,14381.5
2499.9553,14399.5
2500.5496,14390.5
2501.1436,14443.5
2501.7375,14327.5
2502.3313,14395.5
2502.9250,14363.5
2503.5188,14358.5
2504.1123,14430.5
2504.7056,14451.5
2505.2991,14450.5
2505.8921,14398.5
2506.4854,14457.5
2507.0781,14395.5
2507.6711,14464.5
2508.2639,14413.5
2508.8564,14416.5
2509.4490,14434.5
2510.0415,14397.5
2510.6338,14464.5
2511.2261,14503.5
2511.8181,14480.5
2512.4102,14489.5
2513.0020,14456.5
2513.5938,14378.5
2514.1853,14422.5
2514.7769,14491.5
2515.3684,14505.5
2515.9597,14585.5
2516.5510,14503.5
2517.1421,14467.5
2517.7332,14501.5
2518.3240,14484.5
2518.9148,14512.5
2519.5054,14592.5
2520.0959,14471.5
2520.6865,14515.5
2521.2769,14528.5
2521.8669,14488.5
2522.4570,14477.5
2523.0471,14589.5
2523.6370,14599.5
2524.2268,14473.5
2524.8167,14485.5
2525.4063,14548.5
2525.9956,14552.5
2526.5850,14536.5
2527.1743,14537.5
2527.7634,14485.5
2528.3523,14461.5
2528.9414,14594.5
2529.5303,14574.5
2530.1189,14664.5
2530.7075,14586.5
2531.2959,14508.5
2531.8843,14516.5
2532.4727,14580.5
2533.0608,14593.5
2533.6489,14599.5
2534.2368,14630.5
2534.8247,14547.5
2535.4124,14505.5
2536.0000,14687.5
2536.5874,14507.5
2537.1748,14746.5
2537.7622,14669.5
2538.3494,14593.5
2538.9365,14656.5
2539.5234,14638.5
2540.1104,14620.5
2540.6970,14677.5
2541.2837,14728.5
2541.8701,14707.5
2542.4565,14711.5
2543.0430,14666.5
2543.6292,14704.5
2544.2151,14708.5
2544.8013,14788.5
2545.3870,14670.5
2545.9729,14687.5
2546.5586,14654.5
2547.1440,14750.5
2547.7295,14791.5
2548.3149,14859.5
2548.9001,14826.5
2549.4851,14719.5
2550.0703,14713.5
2550.6550,14712.5
2551.2400,14817.5
2551.8245,14832.5
2552.4092,14833.5
2552.9937,14761.5
2553.5779,14727.5
2554.1624,14753.5
2554.7463,14823.5
2555.3303,14855.5
2555.9143,14921.5
2556.4983,14803.5
2557.0818,14809.5
2557.6655,14834.5
2558.2490,14852.5
2558.8323,14980.5
2559.4158,14911.5
2559.9988,14858.5
2560.5818,14832.5
2561.1648,14857.5
2561.7478,14905.5
2562.3303,14918.5
2562.9131,15014.5
2563.4956,14992.5
2564.0781,14941.5
2564.6604,14966.5
2565.2424,14899.5
2565.8247,15049.5
2566.4065,14998.5
2566.9885,14999.5
2567.5703,15000.5
2568.1519,15013.5
2568.7334,14946.5
2569.3149,14979.5
2569.8962,15036.5
2570.4775,15015.5
2571.0586,15083.5
2571.6396,15051.5
2572.2205,14973.5
2572.8013,15027.5
2573.3821,15091.5
2573.9626,15074.5
2574.5430,15090.5
2575.1233,15213.5
2575.7036,15131.5
2576.2839,15072.5
2576.8638,15159.5
2577.4438,15219.5
2578.0237,15121.5
2578.6033,15124.5
2579.1829,15087.5
2579.7625,15226.5
2580.3418,15295.5
2580.9211,15205.5
2581.5002,15233.5
2582.0793,15102.5
2582.6584,15294.5
2583.2373,15172.5
2583.8159,15252.5
2584.3948,15313.5
2584.9731,15267.5
2585.5518,15236.5
2586.1299,15215.5
2586.7083,15233.5
2587.2864,15323.5
2587.8643,15372.5
2588.4421,15350.5
2589.0200,15459.5
2589.5977,15376.5
2590.1753,15326.5
2590.7527,15309.5
2591.3301,15377.5
2591.9072,15461.5
2592.4844,15447.5
2593.0615,15446.5
2593.6384,15419.5
2594.2153,15434.5
2594.7920,15482.5
2595.3687,15423.5
2595.9451,15471.5
2596.5215,15522.5
2597.0979,15466.5
2597.6741,15435.5
2598.2500,15433.5
2598.8262,15577.5
2599.4019,15633.5
2599.9778,15529.5
2600.5532,15520.5
2601.1289,15444.5
2601.7043,15454.5
2602.2795,15536.5
2602.8550,15610.5
2603.4299,15660.5
2604.0049,15631.5
2604.5798,15534.5
2605.1548,15462.5
2605.7295,15613.5
2606.3040,15661.5
2606.8784,15559.5
2607.4529,15577.5
2608.0271,15644.5
2608.6013,15527.5
2609.1753,15533.5
2609.7493,15689.5
2610.3230,15727.5
2610.8967,15571.5
2611.4705,15681.5
2612.0439,15626.5
2612.6174,15695.5
2613.1907,15703.5
2613.7639,15763.5
2614.3369,15722.5
2614.9099,15765.5
2615.4829,15712.5
2616.0557,15800.5
2616.6282,15763.5
2617.2009,15842.5
2617.7732,15727.5
2618.3457,15832.5
2618.9180,15743.5
2619.4900,15650.5
2620.0620,15841.5
2620.6340,15797.5
2621.2058,15809.5
2621.7776,15770.5
2622.3491,15772.5
2622.9207,15841.5
2623.4919,15747.5
2624.0632,15851.5
2624.6345,15878.5
2625.2056,15870.5
2625.7766,15834.5
2626.3474,15838.5
2626.9182,15921.5
2627.4888,15888.5
2628.0593,15756.5
2628.6299,15863.5
2629.2002,15924.5
2629.7703,15876.5
2630.3406,15937.5
2630.9104,15819.5
2631.4805,15947.5
2632.0503,15874.5
2632.6199,15982.5
2633.1895,15928.5
2633.7590,15896.5
2634.3284,15971.5
2634.8977,15967.5
2635.4668,15954.5
2636.0359,16040.5
2636.6047,15919.5
2637.1736,15894.5
2637.7424,15952.5
2638.3110,15986.5
2638.8796,16061.5
2639.4480,16096.5
2640.0164,15948.5
2640.5845,15955.5
2641.1526,15978.5
2641.7207,15968.5
2642.2886,16049.5
2642.8564,15961.5
2643.4241,16029.5
2643.9917,15924.5
2644.5591,15962.5
2645.1265,16172.5
2645.6938,16001.5
2646.2610,16004.5
2646.8281,15987.5
2647.3950,16052.5
2647.9619,16129.5
2648.5286,16011.5
2649.0952,16205.5
2649.6619,16118.5
2650.2283,16137.5
2650.7944,16084.5
2651.3608,16132.5
2651.9268,16059.5
2652.4929,16195.5
2653.0588,16174.5
2653.6245,16183.5
2654.1902,16102.5
2654.7559,16116.5
2655.3213,16210.5
2655.8867,16141.5
2656.4519,16146.5
2657.0171,16189.5
2657.5823,16282.5
2658.1472,16221.5
2658.7122,16220.5
2659.2769,16251.5
2659.8416,16122.5
2660.4060,16239.5
2660.9705,16211.5
2661.5347,16222.5
2662.0989,16204.5
2662.6631,16253.5
2663.2271,16205.5
2663.7910,16268.5
2664.3547,16261.5
2664.9185,16300.5
2665.4822,16201.5
2666.0457,16316.5
2666.6089,16304.5
2667.1724,16280.5
2667.7354,16361.5
2668.2986,16303.5
2668.8616,16349.5
2669.4243,16290.5
2669.9871,16255.5
2670.5498,16187.5
2671.1123,16340.5
2671.6748,16312.5
2672.2371,16308.5
2672.7993,16305.5
2673.3616,16337.5
2673.9236,16312.5
2674.4854,16234.5
2675.0471,16379.5
2675.6089,16481.5
2676.1707,16382.5
2676.7319,16221.5
2677.2935,16238.5
2677.8547,16354.5
2678.4160,16357.5
2678.9771,16407.5
2679.5381,16393.5
2680.0989,16282.5
2680.6597,16292.5
2681.2202,16335.5
2681.7810,16348.5
2682.3413,16372.5
2682.9016,16428.5
2683.4619,16326.5
2684.0222,16290.5
2684.5823,16372.5
2685.1421,16363.5
2685.7019,16484.5
2686.2617,16414.5
2686.8213,16416.5
2687.3809,16332.5
2687.9402,16405.5
2688.4995,16379.5
2689.0588,16420.5
2689.6179,16379.5
2690.1770,16475.5
2690.7358,16449.5
2691.2947,16431.5
2691.8533,16383.5
2692.4119,16492.5
2692.9705,16556.5
2693.5288,16372.5
2694.0869,16561.5
2694.6453,16425.5
2695.2034,16305.5
2695.7612,16537.5
2696.3191,16487.5
2696.8770,16433.5
2697.4346,16544.5
2697.9919,16535.5
2698.5496,16419.5
2699.1069,16507.5
2699.6641,16450.5
2700.2212,16514.5
2700.7783,16581.5
2701.3352,16516.5
2701.8921,16442.5
2702.4487,16458.5
2703.0054,16519.5
2703.5618,16523.5
2704.1182,16548.5
2704.6746,16635.5
2705.2307,16602.5
2705.7869,16454.5
2706.3428,16516.5
2706.8987,16583.5
2707.4546,16531.5
2708.0103,16559.5
2708.5659,16613.5
2709.1213,16605.5
2709.6768,16520.5
2710.2319,16523.5
2710.7871,16601.5
2711.3423,16604.5
2711.8972,16504.5
2712.4521,16492.5
2713.0068,16590.5
2713.5615,16538.5
2714.1160,16566.5
2714.6704,16551.5
2715.2249,16561.5
2715.7791,16596.5
2716.3333,16545.5
2716.8872,16497.5
2717.4412,16567.5
2717.9949,16509.5
2718.5486,16626.5
2719.1023,16707.5
2719.6558,16637.5
2720.2092,16500.5
2720.7625,16554.5
2721.3157,16574.5
2721.8689,16661.5
2722.4219,16639.5
2722.9749,16640.5
2723.5276,16632.5
2724.0803,16628.5
2724.6328,16601.5
2725.1853,16672.5
2725.7378,16756.5
2726.2900,16703.5
2726.8423,16646.5
2727.3943,16702.5
2727.9463,16639.5
2728.4980,16654.5
2729.0500,16674.5
2729.6016,16834.5
2730.1531,16593.5
2730.7046,16667.5
2731.2561,16599.5
2731.8074,16635.5
2732.3584,16707.5
2732.9094,16655.5
2733.4604,16713.5
2734.0112,16738.5
2734.5620,16595.5
2735.1125,16569.5
2735.6631,16666.5
2736.2136,16660.5
2736.7639,16656.5
2737.3142,16705.5
2737.8643,16649.5
2738.4143,16570.5
2738.9644,16661.5
2739.5142,16666.5
2740.0637,16657.5
2740.6135,16699.5
2741.1628,16703.5
2741.7124,16527.5
2742.2617,16732.5
2742.8108,16604.5
2743.3601,16761.5
2743.9089,16748.5
2744.4580,16638.5
2745.0066,16637.5
2745.5554,16608.5
2746.1040,16600.5
2746.6526,16616.5
2747.2009,16669.5
2747.7493,16714.5
2748.2974,16732.5
2748.8455,16750.5
2749.3933,16598.5
2749.9414,16622.5
2750.4890,16759.5
2751.0369,16796.5
2751.5842,16656.5
2752.1318,16780.5
2752.6792,16627.5
2753.2263,16671.5
2753.7737,16748.5
2754.3206,16677.5
2754.8677,16717.5
2755.4146,16652.5
2755.9612,16677.5
2756.5078,16620.5
2757.0544,16621.5
2757.6008,16685.5
2758.1472,16703.5
2758.6936,16650.5
2759.2397,16614.5
2759.7856,16491.5
2760.3315,16620.5
2760.8774,16619.5
2761.4233,16565.5
2761.9688,16683.5
2762.5144,16727.5
2763.0598,16557.5
2763.6052,16629.5
2764.1504,16796.5
2764.6956,16628.5
2765.2405,16841.5
2765.7854,16868.5
2766.3303,16708.5
2766.8750,16611.5
2767.4197,16817.5
2767.9641,16658.5
2768.5085,16739.5
2769.0530,16709.5
2769.5972,16691.5
2770.1414,16691.5
2770.6853,16697.5
2771.2292,16644.5
2771.7729,16551.5
2772.3167,16712.5
2772.8604,16640.5
2773.4038,16568.5
2773.9473,16624.5
2774.4905,16607.5
2775.0337,16616.5
2775.5769,16720.5
2776.1199,16696.5
2776.6628,16669.5
2777.2056,16783.5
2777.7483,16574.5
2778.2908,16677.5
2778.8333,16709.5
2779.3757,16663.5
2779.9180,16640.5
2780.4602,16731.5
2781.0022,16676.5
2781.5442,16582.5
2782.0862,16729.5
2782.6279,16813.5
2783.1697,16714.5
2783.7112,16792.5
2784.2527,16764.5
2784.7942,16723.5
2785.3354,16604.5
2785.8765,16780.5
2786.4177,16763.5
2786.9585,16769.5
2787.4995,16772.5
2788.0403,16684.5
2788.5811,16643.5
2789.1216,16851.5
2789.6621,16707.5
2790.2024,16727.5
2790.7427,16701.5
2791.2827,16630.5
2791.8230,16773.5
2792.3628,16698.5
2792.9028,16760.5
2793.4424,16797.5
2793.9822,16803.5
2794.5217,16729.5
2795.0613,16792.5
2795.6006,16775.5
2796.1399,16747.5
2796.6790,16742.5
2797.2180,16861.5
2797.7571,16741.5
2798.2959,16889.5
2798.8347,16830.5
2799.3733,16793.5
2799.9119,16757.5
2800.4504,16922.5
2800.9888,16923.5
2801.5269,16891.5
2802.0652,16877.5
2802.6033,16889.5
2803.1411,16828.5
2803.6790,16985.5
2804.2168,16871.5
2804.7544,16877.5
2805.2920,16885.5
2805.8293,16849.5
2806.3667,16814.5
2806.9041,16921.5
2807.4412,16912.5
2807.9783,16840.5
2808.5151,16976.5
2809.0520,16882.5
2809.5889,16893.5
2810.1255,17002.5
2810.6621,16993.5
2811.1985,16968.5
2811.7349,17019.5
2812.2710,16998.5
2812.8071,16962.5
2813.3433,16936.5
2813.8792,17099.5
2814.4150,16986.5
2814.9509,16953.5
2815.4866,17059.5
2816.0220,17006.5
2816.5574,17017.5
2817.0928,16975.5
2817.6282,17025.5
2818.1633,16960.5
2818.6982,16954.5
2819.2332,17098.5
2819.7681,17107.5
2820.3030,17140.5
2820.8374,17018.5
2821.3721,16988.5
2821.9065,17127.5
2822.4409,17110.5
2822.9751,17039.5
2823.5093,17191.5
2824.0435,17153.5
2824.5774,17097.5
2825.1111,17091.5
2825.6450,17275.5
2826.1785,17143.5
2826.7122,17178.5
2827.2456,17148.5
2827.7791,17166.5
2828.3123,17208.5
2828.8455,17216.5
2829.3784,17235.5
2829.9114,17186.5
2830.4443,17181.5
2830.9771,17129.5
2831.5095,17204.5
2832.0422,17278.5
2832.5747,17198.5
2833.1069,17263.5
2833.6394,17258.5
2834.1714,17153.5
2834.7036,17254.5
2835.2354,17313.5
2835.7673,17222.5
2836.2991,17185.5
2836.8308,17333.5
2837.3623,17450.5
2837.8938,17280.5
2838.4250,17265.5
2838.9565,17331.5
2839.4875,17358.5
2840.0186,17347.5
2840.5496,17404.5
2841.0806,17413.5
2841.6113,17435.5
2842.1418,17452.5
2842.6726,17377.5
2843.2029,17455.5
2843.7334,17443.5
2844.2637,17464.5
2844.7937,17464.5
2845.3240,17455.5
2845.8538,17341.5
2846.3838,17353.5
2846.9136,17593.5
2847.4431,17468.5
2847.9729,17465.5
2848.5022,17628.5
2849.0317,17613.5
2849.5610,17534.5
2850.0901,17608.5
2850.6191,17596.5
2851.1482,17595.5
2851.6770,17710.5
2852.2058,17589.5
2852.7346,17541.5
2853.2632,17638.5
2853.7917,17594.5
2854.3201,17536.5
2854.8484,17679.5
2855.3765,17712.5
2855.9045,17558.5
2856.4326,17669.5
2856.9604,17548.5
2857.4883,17566.5
2858.0161,17673.5
2858.5437,17664.5
2859.0710,17662.5
2859.5986,17637.5
2860.1260,17665.5
2860.6531,17548.5
2861.1802,17609.5
2861.7073,17811.5
2862.2341,17638.5
2862.7610,17688.5
2863.2876,17750.5
2863.8142,17688.5
2864.3408,17737.5
2864.8672,17910.5
2865.3936,17825.5
2865.9197,17703.5
2866.4458,17799.5
2866.9719,17816.5
2867.4978,17677.5
2868.0237,17813.5
2868.5493,17830.5
2869.0750,17766.5
2869.6006,17926.5
2870.1260,17844.5
2870.6514,17803.5
2871.1765,17856.5
2871.7017,17893.5
2872.2268,17856.5
2872.7517,17967.5
2873.2766,18038.5
2873.8013,17880.5
2874.3259,17848.5
2874.8506,17921.5
2875.3750,17961.5
2875.8992,17989.5
2876.4236,18011.5
2876.9478,18021.5
2877.4717,17932.5
2877.9956,17959.5
2878.5195,18029.5
2879.0435,17921.5
2879.5671,18016.5
2880.0906,17953.5
2880.6140,17939.5
2881.1375,18009.5
2881.6606,18115.5
2882.1838,17956.5
2882.7070,18017.5
2883.2300,17965
2883.7529,17912.5
2884.2756,18145.5
2884.7983,18137.5
2885.3208,18065.5
2885.8435,17904.5
2886.3657,18097.5
2886.8882,18059.5
2887.4102,18057.5
2887.9324,18192.5
2888.4543,18154.5
2888.9763,18030.5
2889.4980,18164.5
2890.0198,18168.5
2890.5415,18142.5
2891.0630,18166.5
2891.5842,18203.5
2892.1057,18223.5
2892.6270,18148.5
2893.1479,18288.5
2893.6689,18152.5
2894.1899,18204.5
2894.7107,18306.5
2895.2314,18185.5
2895.7522,18182.5
2896.2727,18350.5
2896.7932,18197.5
2897.3135,18152.5
2897.8337,18258.5
2898.3538,18252.5
2898.8740,18305.5
2899.3938,18180.5
2899.9138,18343.5
2900.4336,18257.5
2900.9531,18258.5
2901.4727,18375.5
2901.9922,18311.5
2902.5115,18328.5
2903.0308,18480.5
2903.5500,18468.5
2904.0691,18383.5
2904.5881,18544.5
2905.1069,18360.5
2905.6257,18403.5
2906.1443,18452.5
2906.6631,18262.5
2907.1814,18308.5
2907.7000,18415.5
2908.2183,18410.5
2908.7363,18351.5
2909.2544,18547.5
2909.7725,18436.5
2910.2903,18394.5
2910.8081,18420.5
2911.3259,18520.5
2911.8435,18502.5
2912.3611,18455.5
2912.8784,18577.5
2913.3958,18434.5
2913.9131,18486.5
2914.4302,18660.5
2914.9473,18594.5
2915.4641,18627.5
2915.9810,18671.5
2916.4978,18566.5
2917.0144,18568.5
2917.5310,18623.5
2918.0474,18657.5
2918.5637,18631.5
2919.0801,18718.5
2919.5962,18790.5
2920.1123,18575.5
2920.6282,18724.5
2921.1440,18785.5
2921.6599,18605.5
2922.1755,18769.5
2922.6912,18933.5
2923.2065,18713.5
2923.7219,18829.5
2924.2373,18785.5
2924.7524,18833.5
2925.2676,18608.5
2925.7825,18765.5
2926.2974,18906.5
2926.8123,18751.5
2927.3269,18900.5
2927.8416,18891.5
2928.3562,18842.5
2928.8706,18872.5
2929.3848,18897.5
2929.8992,18894.5
2930.4133,18849.5
2930.9272,18975.5
2931.4412,18833.5
2931.9551,18945.5
2932.4688,18990.5
2932.9824,18918.5
2933.4961,18944.5
2934.0095,19017.5
2934.5227,18997.5
2935.0361,18896.5
2935.5493,19049.5
2936.0623,19047.5
2936.5752,18987.5
2937.0881,19064.5
2937.6008,19106.5
2938.1135,19136.5
2938.6262,18980.5
2939.1387,19166.5
2939.6511,19022.5
2940.1633,19091.5
2940.6755,19216.5
2941.1877,19147.5
2941.6997,19040.5
2942.2117,19163.5
2942.7234,19230.5
2943.2351,19149.5
2943.7468,19257.5
2944.2583,19283.5
2944.7698,19219.5
2945.2813,19245.5
2945.7925,19218.5
2946.3035,19191.5
2946.8145,19218.5
2947.3254,19430.5
2947.8364,19325.5
2948.3472,19358.5
2948.8579,19471.5
2949.3684,19265.5
2949.8789,19233.5
2950.3892,19457.5
2950.8994,19354.5
2951.4097,19404.5
2951.9199,19455.5
2952.4297,19523.5
2952.9397,19428.5
2953.4495,19372.5
2953.9592,19474.5
2954.4688,19448.5
2954.9783,19539.5
2955.4878,19578.5
2955.9971,19612.5
2956.5063,19427.5
2957.0154,19617.5
2957.5244,19558.5
2958.0334,19483.5
2958.5422,19608.5
2959.0510,19640.5
2959.5596,19426.5
2960.0684,19686.5
2960.5767,19662.5
2961.0850,19638.5
2961.5933,19664.5
2962.1016,19727.5
2962.6096,19706.5
2963.1177,19705.5
2963.6255,19809.5
2964.1333,19794.5
2964.6409,19676.5
2965.1487,19713.5
2965.6560,19815.5
2966.1636,19651.5
2966.6709,19807.5
2967.1780,19868.5
2967.6851,19762.5
2968.1921,19746.5
2968.6992,19893.5
2969.2061,19786.5
2969.7126,19849.5
2970.2192,19939.5
2970.7258,19804.5
2971.2324,19737.5
2971.7388,19912.5
2972.2451,20026.5
2972.7512,19891.5
2973.2573,19986.5
2973.7632,19949.5
2974.2690,19908.5
2974.7749,19986.5
2975.2805,19984.5
2975.7861,19923.5
2976.2917,19980.5
2976.7971,20138.5
2977.3025,20019.5
2977.8076,20009.5
2978.3127,20098.5
2978.8179,20133.5
2979.3228,19971.5
2979.8276,20163.5
2980.3323,20111.5
2980.8369,20050.5
2981.3416,20183.5
2981.8459,20103.5
2982.3503,20137.5
2982.8547,20105.5
2983.3589,20237.5
2983.8628,20267.5
2984.3669,20157.5
2984.8708,20271.5
2985.3745,20268.5
2985.8782,20031.5
2986.3818,20222.5
2986.8855,20345.5
2987.3889,20299.5
2987.8921,20212.5
2988.3953,20410.5
2988.8984,20405.5
2989.4016,20274.5
2989.9045,20447.5
2990.4072,20448.5
2990.9102,20368.5
2991.4128,20351.5
2991.9153,20498.5
2992.4177,20266.5
2992.9202,20403.5
2993.4224,20526.5
2993.9246,20461.5
2994.4268,20452.5
2994.9287,20675.5
2995.4307,20568.5
2995.9324,20473.5
2996.4341,20499.5
2996.9358,20508.5
2997.4373,20521.5
2997.9387,20680.5
2998.4399,20648.5
2998.9412,20518.5
2999.4424,20589.5
2999.9434,20760.5
3000.4443,20675.5
3000.9453,20631.5
3001.4460,20814.5
3001.9468,20673.5
3002.4473,20611.5
3002.9478,20815.5
3003.4482,20711.5
3003.9485,20656.5
3004.4487,20810.5
3004.9487,20876.5
3005.4487,20730.5
3005.9487,20839.5
3006.4485,20827.5
3006.9482,20667.5
3007.4480,20728.5
3007.9475,20866.5
3008.4468,20879.5
3008.9463,20831.5
3009.4456,20857.5
3009.9446,20818.5
3010.4438,20895.5
3010.9426,20943.5
3011.4417,21061.5
3011.9404,20965.5
3012.4392,20994.5
3012.9377,21024.5
3013.4363,20954.5
3013.9346,20958.5
3014.4329,21114.5
3014.9312,20964.5
3015.4292,20951.5
3015.9272,21140.5
3016.4253,21198.5
3016.9231,21083.5
3017.4209,21110.5
3017.9185,21286.5
3018.4160,21217.5
3018.9136,21144.5
3019.4109,21310.5
3019.9082,21232.5
3020.4055,21225.5
3020.9026,21384.5
3021.3994,21264.5
3021.8965,21341.5
3022.3933,21457.5
3022.8899,21336.5
3023.3865,21388.5
3023.8831,21383.5
3024.3796,21432.5
3024.8760,21480.5
3025.3721,21388.5
3025.8684,21474.5
3026.3645,21587.5
3026.8604,21530.5
3027.3562,21610.5
3027.8521,21492.5
3028.3477,21558.5
3028.8433,21517.5
3029.3389,21679.5
3029.8342,21650.5
3030.3296,21584.5
3030.8247,21759.5
3031.3198,21591.5
3031.8149,21717.5
3032.3098,21693.5
3032.8047,21643
3033.2996,21592.5
3033.7942,21805.5
3034.2888,21932.5
3034.7832,21873.5
3035.2776,21851.5
3035.7720,22096.5
3036.2661,22004.5
3036.7603,21913.5
3037.2542,22034.5
3037.7480,22139.5
3038.2419,22041.5
3038.7356,22156.5
3039.2292,22271.5
3039.7229,22102.5
3040.2163,22224.5
3040.7097,22348.5
3041.2029,22406.5
3041.6960,22229.5
3042.1892,22385.5
3042.6821,22434.5
3043.1750,22471.5
3043.6677,22550.5
3044.1604,22576.5
3044.6531,22443.5
3045.1458,22558
3045.6382,22672.5
3046.1304,22600.5
3046.6226,22604.5
3047.1147,22733.5
3047.6069,22715.5
3048.0989,22701.5
3048.5906,22765.5
3049.0825,22841.5
3049.5742,22803.5
3050.0657,22934.5
3050.5571,23065.5
3051.0486,23003.5
3051.5398,23048.5
3052.0310,23042.5
3052.5222,23203.5
3053.0132,23043.5
3053.5042,23204.5
3053.9951,23334.5
3054.4858,23397.5
3054.9766,23379.5
3055.4670,23613.5
3055.9575,23569.5
3056.2769,23665
3056.8235,23813
3057.3701,23748
3057.9167,23712
3058.4631,23644
3059.0095,23847
3059.5559,23841
3060.1018,23848
3060.6479,23886
3061.1938,23985
3061.7397,24011
3062.2854,24120
3062.8311,23998
3063.3765,24193
3063.9221,24328
3064.4673,24319
3065.0125,24334
3065.5576,24340
3066.1025,24300
3066.6475,24333
3067.1924,24448
3067.7371,24783
3068.2817,24631
3068.8262,24712
3069.3706,24653
3069.9148,24693
3070.4590,24852
3071.0032,25115
3071.5471,24960
3072.0908,25152
3072.6348,25112
3073.1785,25107
3073.7219,25285
3074.2654,25399
3074.8088,25474
3075.3521,25576
3075.8953,25413
3076.4382,25561
3076.9812,25680
3077.5239,25907
3078.0669,25899
3078.6094,26053
3079.1521,26089
3079.6943,25944
3080.2368,26002
3080.7791,26370
3081.3210,26235
3081.8633,26463
3082.4050,26708
3082.9470,26680
3083.4888,26620
3084.0303,26697
3084.5718,26827
3085.1133,26882
3085.6545,27113
3086.1958,27258
3086.7368,27237
3087.2778,27392
3087.8188,27344
3088.3596,27428
3088.9004,27729
3089.4409,27837
3089.9814,27849
3090.5217,27860
3091.0620,27985
3091.6023,28124
3092.1423,28250
3092.6824,28587
3093.2222,28637
3093.7620,28519
3094.3018,28881
3094.8413,28857
3095.3809,29113
3095.9202,29181
3096.4595,29304
3096.9988,29389
3097.5378,29503
3098.0767,29572
3098.6155,29800
3099.1543,29840
3099.6931,29991
3100.2317,30147
3100.7700,30296
3101.3083,30259
3101.8467,30285
3102.3848,30451
3102.9229,30719
3103.4609,30783
3103.9988,30982
3104.5364,31105
3105.0742,31152
3105.6116,31204
3106.1492,31375
3106.6865,31362
3107.2236,31693
3107.7610,31705
3108.2979,31846
3108.8350,31908
3109.3716,32105
3109.9084,31970
3110.4451,32206
3110.9817,32432
3111.5181,32523
3112.0544,32508
3112.5906,32764
3113.1267,32721
3113.6628,32676
3114.1987,32877
3114.7346,33151
3115.2703,32990
3115.8059,33291
3116.3413,33266
3116.8770,33258
3117.4121,33360
3117.9475,33524
3118.4824,33574
3119.0176,33643
3119.5525,33771
3120.0872,33625
3120.6221,33844
3121.1565,33721
3121.6912,33981
3122.2256,34090
3122.7598,34049
3123.2939,33975
3123.8281,34146
3124.3621,33861
3124.8960,34041
3125.4299,34333
3125.9636,34216
3126.4973,34383
3127.0308,34174
3127.5642,34246
3128.0974,34200
3128.6306,34257
3129.1638,34380
3129.6968,34366
3130.2297,34429
3130.7625,34186
3131.2952,34259
3131.8276,34211
3132.3604,34291
3132.8926,34277
3133.4250,34191
3133.9570,34195
3134.4893,34186
3135.0212,33991
3135.5532,33970
3136.0850,34134
3136.6167,34334
3137.1482,34158
3137.6797,34016
3138.2112,33902
3138.7424,33829
3139.2737,33861
3139.8047,33909
3140.3357,33767
3140.8665,33847
3141.3975,33613
3141.9280,33370
3142.4587,33398
3142.9890,33389
3143.5195,33367
3144.0498,33452
3144.5801,33384
3145.1101,33158
3145.6401,33108
3146.1699,33109
3146.6997,33027
3147.2295,33030
3147.7590,33050
3148.2886,32851
3148.8179,32724
3149.3472,32720
3149.8765,32463
3150.4055,32446
3150.9343,32406
3151.4634,32510
3151.9922,32359
3152.5208,32112
3153.0493,32069
3153.5779,32111
3154.1062,31932
3154.6345,31818
3155.1628,31887
3155.6909,31819
3156.2188,31625
3156.7466,31661
3157.2744,31408
3157.8022,31401
3158.3298,31411
3158.8572,31275
3159.3845,31241
3159.9119,31099
3160.4392,30983
3160.9663,30964
3161.4932,30883
3162.0200,30907
3162.5469,31049
3163.0735,30742
3163.6001,30523
3164.1267,30424
3164.6531,30467
3165.1794,30379
3165.7056,30370
3166.2317,30365
3166.7576,30206
3167.2834,30008
3167.8093,30076
3168.3350,30028
3168.8606,29850
3169.3860,29938
3169.9114,29974
3170.4368,29722
3170.9619,29542
3171.4871,29484
3172.0120,29440
3172.5369,29664
3173.0618,29590
3173.5864,29380
3174.1111,29439
3174.6355,29418
3175.1599,29174
3175.6843,29135
3176.2085,29380
3176.7327,29141
3177.2566,29111
3177.7805,29155
3178.3042,29012
3178.8281,28630
3179.3516,28863
3179.8752,28992
3180.3984,28924
3180.9219,28881
3181.4451,28705
3181.9683,28530
3182.4912,28693
3183.0142,28732
3183.5369,28564
3184.0596,28698
3184.5823,28599
3185.1047,28389
3185.6272,28412
3186.1494,28464
3186.6716,28421
3187.1938,28320
3187.7158,28388
3188.2378,28396
3188.7598,28221
3189.2815,28432
3189.8030,28220
3190.3245,28143
3190.8459,28187
3191.3672,28192
3191.8884,28130
3192.4097,28007
3192.9307,28111
3193.4517,27949
3193.9724,27978
3194.4932,28064
3195.0139,28033
3195.5344,28058
3196.0549,27946
3196.5752,28035
3197.0955,27900
3197.6157,27887
3198.1357,27968
3198.6555,27843
3199.1755,27836
3199.6953,27807
3200.2148,27790
3200.7344,27720
3201.2539,27764
3201.7732,27747
3202.2925,27775
3202.8118,27746
3203.3308,27588
3203.8496,27550
3204.3687,27635
3204.8875,27561
3205.4060,27508
3205.9246,27720
3206.4431,27727
3206.9614,27569
3207.4797,27650
3207.9978,27581
3208.5159,27513
3209.0339,27555
3209.5518,27722
3210.0696,27653
3210.5874,27447
3211.1050,27495
3211.6223,27523
3212.1399,27518
3212.6570,27396
3213.1743,27610
3213.6914,27604
3214.2085,27472
3214.7253,27362
3215.2422,27368
3215.7588,27405
3216.2754,27430
3216.7920,27532
3217.3083,27367
3217.8247,27435
3218.3408,27374
3218.8569,27362
3219.3730,27447
3219.8889,27376
3220.4048,27304
3220.9204,27464
3221.4360,27447
3221.9517,27418
3222.4670,27233
3222.9824,27288
3223.4978,27551
3224.0129,27334
3224.5278,27446
3225.0427,27482
3225.5576,27267
3226.0725,27368
3226.5872,27344
3227.1016,27333
3227.6162,27430
3228.1304,27557
3228.6448,27281
3229.1589,27256
3229.6729,27183
3230.1870,27369
3230.7007,27303
3231.2146,27442
3231.7283,27432
3232.2419,27304
3232.7554,27241
3233.2688,27282
3233.7820,27356
3234.2952,27270
3234.8083,27415
3235.3213,27382
3235.8342,27305
3236.3469,27314
3236.8596,27273
3237.3723,27207
3237.8848,27398
3238.3972,27429
3238.9094,27415
3239.4216,27454
3239.9338,27356
3240.4458,27364
3240.9578,27195
3241.4697,27336
3241.9814,27374
3242.4929,27354
3243.0046,27334
3243.5159,27331
3244.0273,27285
3244.5386,27357
3245.0498,27343
3245.5608,27225
3246.0718,27470
3246.5825,27347
3247.0933,27202
3247.6040,27218
3248.1145,27377
3248.6250,27307
3249.1355,27403
3249.6458,27380
3250.1558,27379
3250.6660,27257
3251.1758,27344
3251.6858,27215
3252.1956,27384
3252.7053,27365
3253.2148,27508
3253.7244,27339
3254.2339,27256
3254.7432,27407
3255.2522,27207
3255.7615,27314
3256.2705,27412
3256.7793,27457
3257.2881,27373
3257.7969,27300
3258.3054,27330
3258.8140,27368
3259.3225,27251
3259.8308,27303
3260.3391,27415
3260.8472,27404
3261.3552,27228
3261.8633,27334
3262.3711,27208
3262.8789,27463
3263.3865,27335
3263.8940,27427
3264.4016,27265
3264.9089,27408
3265.4163,27268
3265.9233,27188
3266.4304,27426
3266.9375,27296
3267.4443,27405
3267.9512,27357
3268.4578,27447
3268.9644,27302
3269.4709,27455
3269.9773,27363
3270.4836,27448
3270.9897,27350
3271.4958,27631
3272.0020,27347
3272.5078,27457
3273.0137,27455
3273.5195,27388
3274.0251,27415
3274.5308,27324
3275.0361,27444
3275.5415,27340
3276.0466,27263
3276.5518,27397
3277.0569,27307
3277.5618,27291
3278.0667,27385
3278.5715,27399
3279.0762,27445
3279.5808,27476
3280.0852,27313
3280.5896,27279
3281.0940,27437
3281.5981,27418
3282.1023,27410
3282.6062,27489
3283.1101,27441
3283.6140,27296
3284.1177,27418
3284.6213,27415
3285.1248,27406
3285.6282,27464
3286.1316,27509
3286.6348,27492
3287.1379,27312
3287.6411,27411
3288.1440,27429
3288.6467,27478
3289.1497,27387
3289.6523,27657
3290.1548,27479
3290.6572,27302
3291.1597,27350
3291.6619,27445
3292.1641,27391
3292.6663,27475
3293.1682,27468
3293.6702,27474
3294.1719,27430
3294.6736,27390
3295.1753,27278
3295.6768,27511
3296.1782,27669
3296.6794,27663
3297.1807,27542
3297.6819,27493
3298.1829,27435
3298.6838,27426
3299.1848,27575
3299.6855,27623
3300.1860,27676
3300.6868,27448
3301.1870,27580
3301.6875,27466
3302.1877,27532
3302.6880,27536
3303.1880,27577
3303.6880,27534
3304.1880,27611
3304.6877,27519
3305.1875,27616
3305.6870,27513
3306.1865,27527
3306.6860,27552
3307.1853,27580
3307.6846,27670
3308.1836,27567
3308.6826,27619
3309.1816,27514
3309.6804,27740
3310.1792,27735
3310.6780,27690
3311.1765,27576
3311.6748,27662
3312.1733,27604
3312.6716,27627
3313.1697,27739
3313.6677,27651
3314.1658,27766
3314.6638,27822
3315.1616,27918
3315.6592,27780
3316.1567,27611
3316.6543,27646
3317.1519,27772
3317.6492,27787
3318.1462,27839
3318.6436,27896
3319.1404,27775
3319.6375,27732
3320.1343,27772
3320.6311,27865
3321.1277,27852
3321.6243,27880
3322.1208,27872
3322.6172,27901
3323.1135,27770
3323.6096,27920
3324.1057,27818
3324.6018,27989
3325.0977,27921
3325.5935,27943
3326.0891,28091
3326.5847,27997
3327.0803,27761
3327.5757,27919
3328.0710,27874
3328.5664,27961
3329.0615,28032
3329.5564,28087
3330.0515,27990
3330.5464,27925
3331.0410,27887
3331.5359,28079
3332.0303,27970
3332.5249,28037
3333.0193,28125
3333.5134,27967
3334.0078,27995
3334.5020,28066
3334.9958,28020
3335.4897,28080
3335.9836,28079
3336.4773,28190
3336.9709,28240
3337.4646,28166
3337.9580,28130
3338.4514,28081
3338.9446,28088
3339.4377,28275
3339.9309,28220
3340.4238,28307
3340.9167,28072
3341.4094,28123
3341.9021,28109
3342.3948,28072
3342.8872,28195
3343.3796,28343
3343.8721,28336
3344.3643,28340
3344.8564,28191
3345.3484,28155
3345.8403,28092
3346.3323,28269
3346.8240,28366
3347.3157,28386
3347.8071,28379
3348.2986,28378
3348.7900,28261
3349.2813,28319
3349.7725,28442
3350.2637,28507
3350.7546,28518
3351.2456,28347
3351.7363,28395
3352.2271,28272
3352.7178,28451
3353.2083,28570
3353.6987,28539
3354.1890,28509
3354.6792,28631
3355.1694,28540
3355.6594,28619
3356.1494,28423
3356.6394,28567
3357.1292,28632
3357.6189,28636
3358.1084,28521
3358.5979,28575
3359.0874,28542
3359.5767,28511
3360.0659,28424
3360.5549,28739
3361.0442,28675
3361.5330,28647
3362.0220,28695
3362.5107,28689
3362.9993,28616
3363.4878,28573
3363.9763,28745
3364.4648,28743
3364.9531,28810
3365.4412,28679
3365.9292,28761
3366.4172,28652
3366.9053,28601
3367.3931,28751
3367.8809,28677
3368.3684,28937
3368.8560,28814
3369.3435,28786
3369.8308,28807
3370.3181,28776
3370.8052,28827
3371.2922,28831
3371.7793,28991
3372.2661,28975
3372.7529,28952
3373.2397,28921
3373.7263,28876
3374.2129,28906
3374.6992,28878
3375.1855,29098
3375.6719,28945
3376.1580,29027
3376.6440,28949
3377.1299,28971
3377.6157,28990
3378.1016,29055
3378.5872,28974
3379.0728,29079
3379.5583,29079
3380.0437,29023
3380.5291,29088
3381.0142,29047
3381.4993,29039
3381.9844,29067
3382.4692,29212
3382.9541,29226
3383.4390,29144
3383.9236,29177
3384.4082,29174
3384.8926,28984
3385.3770,29161
3385.8613,29296
3386.3455,29198
3386.8296,29217
3387.3135,29212
3387.7974,29263
3388.2813,29024
3388.7651,29306
3389.2485,29291
3389.7322,29255
3390.2156,29135
3390.6990,29370
3391.1824,29180
3391.6655,29280
3392.1484,29386
3392.6316,29208
3393.1145,29266
3393.5972,29259
3394.0798,29524
3394.5625,29357
3395.0452,29414
3395.5276,29213
3396.0098,29193
3396.4922,29320
3396.9741,29477
3397.4563,29511
3397.9382,29421
3398.4202,29336
3398.9019,29386
3399.3835,29452
3399.8652,29468
3400.3467,29539
3400.8281,29509
3401.3096,29450
3401.7908,29458
3402.2717,29442
3402.7529,29521
3403.2339,29356
3403.7146,29422
3404.1956,29506
3404.6760,29557
3405.1567,29697
3405.6372,29616
3406.1177,29580
3406.5979,29377
3407.0781,29550
3407.5583,29646
3408.0383,29703
3408.5183,29593
3408.9980,29622
3409.4778,29702
3409.9575,29568
3410.4370,29557
3410.9165,29605
3411.3960,29734
3411.8752,29671
3412.3545,29790
3412.8335,29764
3413.3125,29757
3413.7915,29748
3414.2703,29730
3414.7490,29684
3415.2278,29897
3415.7063,29929
3416.1848,29740
3416.6631,29561
3417.1414,29728
3417.6196,29760
3418.0977,29646
3418.5757,29928
3419.0537,29840
3419.5315,29805
3420.0093,29813
3420.4868,29879
3420.9644,29883
3421.4419,29744
3421.9192,29916
3422.3965,30004
3422.8738,29781
3423.3508,30053
3423.8276,29895
3424.3047,29939
3424.7815,29903
3425.2583,30037
3425.7349,30044
3426.2114,30092
3426.6877,30047
3427.1643,29984
3427.6404,29960
3428.1167,29925
3428.5928,30088
3429.0686,30166
3429.5447,30247
3430.0205,30091
3430.4961,30257
3430.9717,30071
3431.4473,30030
3431.9229,30094
3432.3982,30194
3432.8733,30118
3433.3486,30074
3433.8235,30161
3434.2986,30046
3434.7734,30145
3435.2483,30169
3435.7229,30308
3436.1975,30257
3436.6721,30311
3437.1465,30379
3437.6208,30247
3438.0952,30168
3438.5693,30333
3439.0435,30255
3439.5173,30185
3439.9912,30349
3440.4651,30426
3440.9387,30309
3441.4124,30416
3441.8860,30326
3442.3594,30255
3442.8328,30356
3443.3059,30430
3443.7791,30531
3444.2522,30484
3444.7251,30510
3445.1980,30492
3445.6709,30391
3446.1436,30434
3446.6162,30482
3447.0889,30556
3447.5613,30608
3448.0334,30541
3448.5059,30390
3448.9780,30563
3449.4500,30476
3449.9219,30697
3450.3938,30586
3450.8657,30620
3451.3374,30713
3451.8091,30826
3452.2805,30807
3452.7520,30701
3453.2234,30758
3453.6946,30761
3454.1658,30821
3454.6367,30728
3455.1077,30894
3455.5786,30806
3456.0496,30865
3456.5203,30861
3456.9907,30968
3457.4614,30727
3457.9316,30896
3458.4021,31070
3458.8723,30871
3459.3425,30953
3459.8125,30840
3460.2825,31017
3460.7524,30897
3461.2222,31160
3461.6919,31060
3462.1616,31006
3462.6311,31026
3463.1006,31130
3463.5698,31126
3464.0393,31099
3464.5083,31001
3464.9775,31167
3465.4465,31236
3465.9153,31264
3466.3840,31331
3466.8528,31173
3467.3215,31168
3467.7900,31041
3468.2585,31362
3468.7268,31414
3469.1951,31393
3469.6633,31504
3470.1313,31438
3470.5994,31411
3471.0674,31374
3471.5352,31433
3472.0027,31482
3472.4705,31517
3472.9380,31554
3473.4055,31505
3473.8728,31417
3474.3401,31362
3474.8074,31365
3475.2744,31470
3475.7415,31558
3476.2083,31729
3476.6750,31716
3477.1418,31587
3477.6084,31421
3478.0750,31540
3478.5415,31559
3479.0078,31537
3479.4741,31847
3479.9404,31678
3480.4065,31749
3480.8726,31784
3481.3384,31754
3481.8042,31740
3482.2700,31667
3482.7356,31880
3483.2012,31955
3483.6667,31860
3484.1321,31919
3484.5974,32040
3485.0625,31956
3485.5276,31764
3485.9927,31887
3486.4575,32048
3486.9224,32097
3487.3872,32147
3487.8518,32104
3488.3164,31911
3488.7810,32250
3489.2454,32095
3489.7097,32218
3490.1738,32105
3490.6379,32178
3491.1021,32335
3491.5659,32286
3492.0298,32194
3492.4937,32062
3492.9573,32319
3493.4209,32290
3493.8843,32172
3494.3477,32355
3494.8110,32375
3495.2744,32087
3495.7375,32189
3496.2004,32434
3496.6636,32327
3497.1262,32263
3497.5891,32557
3498.0518,32422
3498.5144,32359
3498.9771,32296
3499.4395,32410
3499.9016,32469
3500.3640,32518
3500.8262,32544
3501.2881,32621
3501.7502,32514
3502.2122,32700
3502.6738,32749
3503.1355,32575
3503.5972,32621
3504.0586,32633
3504.5203,32845
3504.9814,32747
3505.4429,32710
3505.9041,32779
3506.3650,32628
3506.8259,32459
3507.2869,32606
3507.7478,32950
3508.2085,32852
3508.6692,32832
3509.1296,32928
3509.5901,32976
3510.0505,32839
3510.5107,32832
3510.9709,32985
3511.4312,33035
3511.8911,33071
3512.3511,33143
3512.8108,33103
3513.2708,32954
3513.7302,32921
3514.1899,33062
3514.6494,33038
3515.1086,32950
3515.5681,33142
3516.0273,33247
3516.4863,33109
3516.9453,33130
3517.4043,33214
3517.8633,33194
3518.3220,32997
3518.7808,33229
3519.2393,33386
3519.6978,33205
3520.1563,33148
3520.6145,33246
3521.0728,33265
3521.5310,33225
3521.9890,33351
3522.4470,33436
3522.9048,33284
3523.3625,33255
3523.8203,33505
3524.2781,33452
3524.7356,33307
3525.1929,33210
3525.6504,33503
3526.1077,33425
3526.5647,33488
3527.0217,33498
3527.4788,33684
3527.9358,33327
3528.3926,33337
3528.8494,33627
3529.3059,33575
3529.7625,33469
3530.2190,33544
3530.6753,33767
3531.1316,33492
3531.5879,33431
3532.0439,33709
3532.5000,33825
3532.9558,33608
3533.4116,33726
3533.8674,33830
3534.3232,33714
3534.7788,33660
3535.2341,33810
3535.6897,33917
3536.1450,33840
3536.6001,33914
3537.0554,34006
3537.5105,33912
3537.9653,33896
3538.4202,33940
3538.8750,34086
3539.3298,33960
3539.7844,33916
3540.2388,34123
3540.6934,34341
3541.1477,34105
3541.6018,33971
3542.0562,34009
3542.5103,34128
3542.9641,34096
3543.4180,34039
3543.8718,34352
3544.3257,34139
3544.7793,34184
3545.2327,34351
3545.6863,34214
3546.1396,33943
3546.5930,34134
3547.0461,34373
3547.4993,34389
3547.9521,34257
3548.4053,34373
3548.8582,34403
3549.3108,34303
3549.7634,34193
3550.2161,34473
3550.6685,34413
3551.1211,34365
3551.5732,34509
3552.0256,34521
3552.4778,34444
3552.9297,34357
3553.3816,34483
3553.8335,34670
3554.2854,34604
3554.7371,34548
3555.1887,34740
3555.6401,34736
3556.0918,34596
3556.5430,34701
3556.9944,34748
3557.4456,34764
3557.8965,34715
3558.3477,34964
3558.7986,34925
3559.2493,34615
3559.7002,34730
3560.1506,35020
3560.6013,34869
3561.0518,34837
3561.5022,34893
3561.9524,35030
3562.4026,34795
3562.8528,34782
3563.3030,35047
3563.7529,34848
3564.2026,34839
3564.6526,34931
3565.1023,35137
3565.5518,35094
3566.0012,34847
3566.4507,35167
3566.9001,35103
3567.3494,34963
3567.7986,34937
3568.2476,35204
3568.6965,35190
3569.1455,35218
3569.5942,35224
3570.0430,35383
3570.4917,35107
3570.9402,35107
3571.3887,35387
3571.8372,35412
3572.2854,35541
3572.7336,35375
3573.1816,35588
3573.6296,35603
3574.0776,35277
3574.5256,35482
3574.9734,35670
3575.4209,35563
3575.8687,35582
3576.3162,35511
3576.7634,35779
3577.2109,35388
3577.6582,35577
3578.1052,35813
3578.5522,35622
3578.9993,35533
3579.4463,35677
3579.8931,35614
3580.3398,35654
3580.7864,35613
3581.2329,35605
3581.6794,35570
3582.1257,35683
3582.5720,35595
3583.0183,35898
3583.4644,36007
3583.9104,35761
3584.3564,35903
3584.8022,36012
3585.2480,36030
3585.6936,35863
3586.1392,36028
3586.5847,36333
3587.0303,36167
3587.4756,35837
3587.9209,35991
3588.3660,36064
3588.8110,35917
3589.2561,35930
3589.7009,36176
3590.1458,36160
3590.5906,35947
3591.0352,36170
3591.4797,36128
3591.9241,36042
3592.3684,35921
3592.8127,36213
3593.2571,36319
3593.7012,36144
3594.1453,36203
3594.5891,36536
3595.0330,36364
3595.4768,36172
3595.9204,36160
3596.3640,36525
3596.8076,36445
3597.2510,36424
3597.6943,36627
3598.1375,36623
3598.5808,36217
3599.0239,36328
3599.4668,36489
3599.9097,36551
3600.3525,36500
3600.7952,36454
3601.2380,36715
3601.6804,36462
3602.1230,36540
3602.5654,36627
3603.0076,36653
3603.4500,36416
3603.8921,36618
3604.3340,36681
3604.7761,36811
3605.2180,36604
3605.6597,36743
3606.1013,36846
3606.5430,36685
3606.9846,36714
3607.4260,36893
3607.8674,37128
3608.3086,36734
3608.7498,36727
3609.1909,36739
3609.6318,36938
3610.0728,36731
3610.5137,36805
3610.9543,36968
3611.3950,36960
3611.8357,36784
3612.2761,37125
3612.7166,37091
3613.1570,36811
3613.5972,36879
3614.0374,37041
3614.4773,37088
3614.9172,37086
3615.3572,37028
3615.7969,37135
3616.2368,37042
3616.6763,36859
3617.1160,36977
3617.5554,37120
3617.9946,37045
3618.4341,37014
3618.8733,37239
3619.3123,37248
3619.7515,36892
3620.1904,36984
3620.6292,37294
3621.0679,37087
3621.5066,36901
3621.9453,37119
3622.3838,37331
3622.8223,37154
3623.2605,37113
3623.6987,37245
3624.1370,37102
3624.5750,37164
3625.0129,37140
3625.4509,37330
3625.8889,37362
3626.3267,37177
3626.7642,37061
3627.2017,37149
3627.6392,37203
3628.0767,37042
3628.5139,37239
3628.9512,37355
3629.3884,37255
3629.8254,37168
3630.2625,37252
3630.6992,37050
3631.1360,37120
3631.5728,37070
3632.0095,37283
3632.4460,37145
3632.8823,37049
3633.3188,37211
3633.7551,37437
3634.1914,37126
3634.6274,37051
3635.0635,37129
3635.4995,37239
3635.9353,37162
3636.3711,37183
3636.8066,37277
3637.2424,37257
3637.6780,36949
3638.1133,36990
3638.5486,37230
3638.9839,37197
3639.4192,37111
3639.8542,37131
3640.2893,37463
3640.7241,37304
3641.1589,37027
3641.5938,37019
3642.0283,37240
3642.4629,37065
3642.8975,37058
3643.3318,37199
3643.7661,37230
3644.2004,36936
3644.6345,37133
3645.0686,37080
3645.5027,37110
3645.9365,37077
3646.3704,36958
3646.8042,37403
3647.2378,37106
3647.6714,36946
3648.1047,37165
3648.5381,37198
3648.9714,36837
3649.4048,36894
3649.8379,37153
3650.2710,37107
3650.7039,37000
3651.1367,37152
3651.5696,36996
3652.0022,37091
3652.4348,36687
3652.8674,36964
3653.2998,37300
3653.7322,36999
3654.1646,36681
3654.5967,37025
3655.0288,37071
3655.4609,36903
3655.8928,36687
3656.3247,36923
3656.7566,37061
3657.1882,36761
3657.6199,37009
3658.0513,37037
3658.4827,36841
3658.9141,36748
3659.3455,36796
3659.7766,36977
3660.2078,36875
3660.6387,36748
3661.0696,36829
3661.5005,37053
3661.9312,36780
3662.3618,36584
3662.7925,36818
3663.2229,36754
3663.6533,36610
3664.0837,36459
3664.5139,36833
3664.9441,36623
3665.3743,36480
3665.8042,36492
3666.2341,36694
3666.6641,36526
3667.0938,36428
3667.5234,36553
3667.9529,36815
3668.3826,36650
3668.8118,36278
3669.2412,36566
3669.6704,36503
3670.0996,36423
3670.5286,36248
3670.9575,36608
3671.3865,36727
3671.8154,36456
3672.2441,36475
3672.6726,36625
3673.1013,36433
3673.5298,36279
3673.9583,36218
3674.3865,36383
3674.8147,36459
3675.2429,36192
3675.6709,36317
3676.0989,36464
3676.5269,36322
3676.9546,36143
3677.3823,36202
3677.8098,36212
3678.2375,36069
3678.6650,36118
3679.0923,36486
3679.5195,36405
3679.9468,35964
3680.3740,35959
3680.8010,36163
3681.2280,36193
3681.6548,35832
3682.0815,35904
3682.5083,36223
3682.9351,36085
3683.3616,35899
3683.7881,35872
3684.2144,36071
3684.6406,35878
3685.0669,35820
3685.4929,35862
3685.9189,36160
3686.3450,35907
3686.7708,35877
3687.1965,35892
3687.6223,35869
3688.0479,35880
3688.4734,35647
3688.8989,35975
3689.3242,35859
3689.7495,35632
3690.1748,35691
3690.5999,35994
3691.0249,35832
3691.4500,35411
3691.8748,35641
3692.2996,35901
3692.7241,35673
3693.1489,35570
3693.5735,35656
3693.9978,35716
3694.4221,35513
3694.8464,35429
3695.2708,35721
3695.6948,35755
3696.1189,35601
3696.5427,35387
3696.9666,35737
3697.3904,35616
3697.8140,35507
3698.2375,35396
3698.6611,35516
3699.0847,35626
3699.5081,35370
3699.9312,35431
3700.3545,35737
3700.7776,35552
3701.2007,35277
3701.6235,35266
3702.0464,35452
3702.4692,35451
3702.8918,35237
3703.3145,35422
3703.7371,35619
3704.1594,35297
3704.5818,35079
3705.0042,35300
3705.4263,35233
3705.8484,35182
3706.2703,35044
3706.6924,35198
3707.1143,35381
3707.5359,35177
3707.9575,35022
3708.3792,35312
3708.8008,35280
3709.2222,35174
3709.6436,35347
3710.0647,35520
3710.4861,35506
3710.9070,35138
3711.3281,35071
3711.7490,35295
3712.1699,35107
3712.5906,34882
3713.0115,35174
3713.4319,35255
3713.8525,35135
3714.2729,35040
3714.6934,35084
3715.1135,35203
3715.5337,35094
3715.9539,34926
3716.3738,35141
3716.7937,35206
3717.2136,35177
3717.6335,34926
3718.0532,35265
3718.4727,35319
3718.8923,34939
3719.3118,34851
3719.7310,35135
3720.1504,35114
3720.5696,34849
3720.9885,34988
3721.4077,35175
3721.8267,34980
3722.2454,34776
3722.6643,34683
3723.0830,35019
3723.5015,35104
3723.9202,34743
3724.3386,34758
3724.7568,34994
3725.1753,34970
3725.5933,34638
3726.0115,34747
3726.4294,34989
3726.8474,34769
3727.2654,34655
3727.6831,34672
3728.1008,34858
3728.5186,34908
3728.9360,34604
3729.3535,34885
3729.7708,34908
3730.1880,34621
3730.6052,34490
3731.0225,34793
3731.4395,34907
3731.8564,34669
3732.2732,34757
3732.4658,34583.1
3732.9241,34613.1
3733.3823,34634.1
3733.8403,34434.1
3734.2983,34476.1
3734.7561,34387.1
3735.2139,34443.1
3735.6716,34599.1
3736.1294,34379.1
3736.5869,34567.1
3737.0442,34553.1
3737.5017,34409.1
3737.9590,34149.1
3738.4160,34265.1
3738.8730,34382.1
3739.3301,34529.1
3739.7871,34328.1
3740.2439,34571.1
3740.7007,34353.1
3741.1572,34294.1
3741.6138,34414.1
3742.0703,34210.1
3742.5266,34321.1
3742.9829,34198.1
3743.4392,34409.1
3743.8953,34588.1
3744.3513,34262.1
3744.8071,34216.1
3745.2629,34027.1
3745.7188,34202.1
3746.1746,34222.1
3746.6301,34277.1
3747.0854,34362.1
3747.5410,34214.1
3747.9963,34257.1
3748.4514,34377.1
3748.9065,34147.1
3749.3616,34273.1
3749.8167,34054.1
3750.2715,34291.1
3750.7263,34339.1
3751.1809,34086.1
3751.6355,34391.1
3752.0901,34111.1
3752.5444,33960.1
3752.9988,34013.1
3753.4531,34070.1
3753.9072,34236.1
3754.3613,34188.1
3754.8152,34115.1
3755.2690,34172.1
3755.7229,34048.1
3756.1768,33769.1
3756.6304,33995.1
3757.0837,34172.1
3757.5374,33941.1
3757.9907,34009.1
3758.4438,34232.1
3758.8970,34121.1
3759.3501,34001.1
3759.8032,33807.1
3760.2561,33857.1
3760.7090,34031.1
3761.1616,33931.1
3761.6143,33933.1
3762.0669,33894.1
3762.5193,33836.1
3762.9717,33791.1
3763.4241,33924.1
3763.8762,33855.1
3764.3284,34002.1
3764.7805,33838.1
3765.2324,33911.1
3765.6843,33970.1
3766.1360,33834.1
3766.5876,33787.1
3767.0393,33714.1
3767.4907,33720.1
3767.9421,33753.1
3768.3936,33825.1
3768.8447,34070.1
3769.2959,33830.1
3769.7468,33770.1
3770.1980,33691.1
3770.6487,33872.1
3771.0996,33919.1
3771.5503,33593.1
3772.0010,33914.1
3772.4514,34049.1
3772.9019,33882.1
3773.3523,33506.1
3773.8025,33621.1
3774.2527,33616.1
3774.7029,33455.1
3775.1528,33678.1
3775.6028,33630.1
3776.0525,33728.1
3776.5022,33756.1
3776.9519,33724.1
3777.4016,33585.1
3777.8511,33381.1
3778.3003,33506.1
3778.7498,33563.1
3779.1990,33456.1
3779.6479,33550.1
3780.0972,33525.1
3780.5461,33842.1
3780.9949,33492.1
3781.4436,33318.1
3781.8923,33662.1
3782.3411,33365.1
3782.7896,33545.1
3783.2378,33578.1
3783.6863,33470.1
3784.1345,33205.1
3784.5825,33426.1
3785.0308,33214.1
3785.4788,33294.1
3785.9265,33154.1
3786.3743,33250.1
3786.8220,33157.1
3787.2698,33312.1
3787.7173,33461.1
3788.1648,33205.1
3788.6121,33189.1
3789.0593,33200.1
3789.5066,33308.1
3789.9536,33232.1
3790.4006,33176.1
3790.8477,33197.1
3791.2944,33174.1
3791.7412,33097.1
3792.1880,33106.1
3792.6345,33051.1
3793.0811,33180.1
3793.5273,33261.1
3793.9736,33152.1
3794.4199,33245.1
3794.8662,33039.1
3795.3123,32971.1
3795.7581,32830.1
3796.2041,33299.1
3796.6499,32883.1
3797.0955,33004.1
3797.5413,33284.1
3797.9868,33144.1
3798.4321,32968.1
3798.8774,33050.1
3799.3228,32796.1
3799.7681,33017.1
3800.2131,33006.1
3800.6580,33122.1
3801.1030,32887.1
3801.5479,33106.1
3801.9927,33223.1
3802.4373,32928.1
3802.8818,32863.1
3803.3264,32780.1
3803.7708,32938.1
3804.2151,32969.1
3804.6592,32968.1
3805.1033,32915.1
3805.5474,32778.1
3805.9915,32743.1
3806.4353,32831.1
3806.8792,32825.1
3807.3228,32701.1
3807.7664,32768.1
3808.2100,32903.1
3808.6533,33060.1
3809.0967,32994.1
3809.5400,32649.1
3809.9832,32547.1
3810.4263,32696.1
3810.8694,32642.1
3811.3123,32778.1
3811.7551,32683.1
3812.1978,32920.1
3812.6404,32585.1
3813.0830,32591.1
3813.5254,32827.1
3813.9678,32541.1
3814.4102,32525.1
3814.8525,32866.1
3815.2947,32683.1
3815.7366,32553.1
3816.1785,32451.1
3816.6204,32776.1
3817.0623,32707.1
3817.5039,32472.1
3817.9456,32497.1
3818.3872,32551.1
3818.8286,32632.1
3819.2700,32631.1
3819.7112,32570.1
3820.1523,32544.1
3820.5935,32492.1
3821.0344,32480.1
3821.4753,32420.1
3821.9163,32631.1
3822.3569,32550.1
3822.7976,32418.1
3823.2383,32547.1
3823.6787,32474.1
3824.1191,32515.1
3824.5593,32309.1
3824.9998,32450.1
3825.4397,32509.1
3825.8799,32462.1
3826.3198,32352.1
3826.7598,32617.1
3827.1995,32197.1
3827.6392,32187.1
3828.0789,32082.1
3828.5183,32371.1
3828.9578,32477.1
3829.3972,32302.1
3829.8364,32416.1
3830.2756,32267.1
3830.7148,32310.1
3831.1538,32302.1
3831.5928,32155.1
3832.0317,32160.1
3832.4705,32198.1
3832.9089,32415.1
3833.3477,32322.1
3833.7861,32501.1
3834.2246,32380.1
3834.6628,32307.1
3835.1011,32403.1
3835.5393,31945.1
3835.9773,32263.1
3836.4153,32363.1
3836.8533,32393.1
3837.2910,32360.1
3837.7288,32287.1
3838.1665,32379.1
3838.6040,32182.1
3839.0415,32139.1
3839.4788,32078.1
3839.9163,32364.1
3840.3533,32102.1
3840.7905,32375.1
3841.2275,32248.1
3841.6646,32299.1
3842.1013,32121.1
3842.5381,31988.1
3842.9749,32299.1
3843.4114,32251.1
3843.8479,32198.1
3844.2844,32355.1
3844.7207,32302.1
3845.1570,32304.1
3845.5933,32376.1
3846.0293,32121.1
3846.4653,32356.1
3846.9011,32025.1
3847.3372,32155.1
3847.7727,32291.1
3848.2085,32262.1
3848.6440,32109.1
3849.0796,32013.1
3849.5149,32100.1
3849.9502,32187.1
3850.3855,31950.1
3850.8206,32207.1
3851.2556,32387.1
3851.6907,32176.1
3852.1255,32254.1
3852.5603,31901.1
3852.9951,32118.1
3853.4297,32106.1
3853.8643,32092.1
3854.2988,32181.1
3854.7332,32104.1
3855.1675,31928.1
3855.6016,32012.1
3856.0356,32005.1
3856.4697,31917.1
3856.9038,32191.1
3857.3376,32031.1
3857.7715,32095.1
3858.2051,32207.1
3858.6387,32161.1
3859.0723,32333.1
3859.5056,32370.1
3859.9390,32033.1
3860.3723,31983.1
3860.8054,32044.1
3861.2385,32097.1
3861.6716,32316.1
3862.1045,32306.1
3862.5374,32271.1
3862.9700,32301.1
3863.4026,32032.1
3863.8352,32036.1
3864.2678,32203.1
3864.7002,32052.1
3865.1326,32176.1
3865.5647,32103.1
3865.9968,32344.1
3866.4290,32133.1
3866.8611,32097.1
3867.2930,32038.1
3867.7246,32364.1
3868.1565,32116.1
3868.5881,32004.1
3869.0195,32211.1
3869.4512,32450.1
3869.8826,32245.1
3870.3137,32159.1
3870.7449,32158.1
3871.1760,32101.1
3871.6072,32067.1
3872.0381,32111.1
3872.4690,32365.1
3872.8999,32275.1
3873.3306,32127.1
3873.7612,32291.1
3874.1917,32189.1
3874.6221,32070.1
3875.0525,32127.1
3875.4827,32062.1
3875.9128,32209.1
3876.3430,32360.1
3876.7732,32277.1
3877.2031,32223.1
3877.6328,32123.1
3878.0627,32308.1
3878.4924,31981.1
3878.9219,32274.1
3879.3516,32075.1
3879.7808,32249.1
3880.2102,32281.1
3880.6394,32036.1
3881.0686,32273.1
3881.4978,32247.1
3881.9268,32169.1
3882.3557,32194.1
3882.7844,32269.1
3883.2134,32261.1
3883.6418,32249.1
3884.0706,32338.1
3884.4990,32441.1
3884.9275,32200.1
3885.3557,32180.1
3885.7839,32409.1
3886.2122,32259.1
3886.6401,32388.1
3887.0681,32303.1
3887.4961,32341.1
3887.9238,32300.1
3888.3516,32088.1
3888.7793,32211.1
3889.2068,32209.1
3889.6343,32096.1
3890.0618,32277.1
3890.4890,32268.1
3890.9163,32250.1
3891.3435,32258.1
3891.7705,32087.1
3892.1975,32245.1
3892.6243,32222.1
3893.0513,32011.1
3893.4778,32287.1
3893.9045,32491.1
3894.3311,32256.1
3894.7576,32187.1
3895.1838,32146.1
3895.6101,32220.1
3896.0364,32129.1
3896.4626,32257.1
3896.8887,32418.1
3897.3145,32448.1
3897.7405,32377.1
3898.1663,32330.1
3898.5920,32248.1
3899.0176,32138.1
3899.4431,32290.1
3899.8687,32230.1
3900.2939,32365.1
3900.7192,32158.1
3901.1445,32088.1
3901.5696,32240.1
3901.9946,32316.1
3902.4194,32314.1
3902.8445,32163.1
3903.2690,32063.1
3903.6938,31987.1
3904.1184,32289.1
3904.5430,32291.1
3904.9675,32444.1
3905.3918,32330.1
3905.8162,32153.1
3906.2402,32088.1
3906.6643,32293.1
3907.0884,32206.1
3907.5122,32304.1
3907.9363,32300.1
3908.3599,32441.1
3908.7837,32409.1
3909.2073,32416.1
3909.6306,32197.1
3910.0542,32123.1
3910.4775,32226.1
3910.9009,32322.1
3911.3240,32225.1
3911.7471,32386.1
3912.1702,32391.1
3912.5930,32432.1
3913.0159,32134.1
3913.4387,32118.1
3913.8613,32236.1
3914.2839,32003.1
3914.7063,32124.1
3915.1289,32387.1
3915.5510,32250.1
3915.9734,32215.1
3916.3955,32295.1
3916.8176,32218.1
3917.2397,32274.1
3917.6616,32167.1
3918.0835,32031.1
3918.5051,32234.1
3918.9268,32264.1
3919.3484,32161.1
3919.7700,32231.1
3920.1914,32174.1
3920.6128,32185.1
3921.0339,32043.1
3921.4551,32126.1
3921.8762,32313.1
3922.2971,32188.1
3922.7180,32234.1
3923.1389,32258.1
3923.5598,32513.1
3923.9805,32192.1
3924.4009,32098.1
3924.8215,32279.1
3925.2419,32197.1
3925.6621,32227.1
3926.0825,32338.1
3926.5027,32318.1
3926.9226,32219.1
3927.3428,32176.1
3927.7627,32110.1
3928.1824,32123.1
3928.6023,32128.1
3929.0217,32117.1
3929.4414,32325.1
3929.8608,32193.1
3930.2803,32281.1
3930.6997,32076.1
3931.1189,32148.1
3931.5381,32218.1
3931.9570,32034.1
3932.3762,32071.1
3932.7952,32322.1
3933.2139,32232.1
3933.6326,32051.1
3934.0513,32050.1
3934.4700,32134.1
3934.8884,32064.1
3935.3069,31970.1
3935.7251,32017.1
3936.1433,32192.1
3936.5615,32252.1
3936.9795,32136.1
3937.3977,31992.1
3937.8154,32133.1
3938.2334,32187.1
3938.6511,32137.1
3939.0688,31920.1
3939.4863,31986.1
3939.9038,32251.1
3940.3213,32051.1
3940.7385,32171.1
3941.1558,32234.1
3941.5730,32229.1
3941.9900,31904.1
3942.4070,31880.1
3942.8240,32136.1
3943.2407,32055.1
3943.6575,32065.1
3944.0742,32000.1
3944.4907,32062.1
3944.9072,32155.1
3945.3237,31854.1
3945.7400,31918.1
3946.1563,32091.1
3946.5725,32244.1
3946.9885,31754.1
3947.4045,32025.1
3947.8206,32194.1
3948.2363,32054.1
3948.6521,31911.1
3949.0676,31896.1
3949.4834,32093.1
3949.8987,31966.1
3950.3142,31924.1
3950.7295,31985.1
3951.1448,31987.1
3951.5601,32164.1
3951.9751,31867.1
3952.3901,32038.1
3952.8049,31894.1
3953.2197,31924.1
3953.6345,31751.1
3954.0493,32083.1
3954.4639,32156.1
3954.8784,31927.1
3955.2927,31819.1
3955.7070,31920.1
3956.1213,31971.1
3956.5356,31812.1
3956.9497,31755.1
3957.3638,31969.1
3957.7776,32056.1
3958.1914,31911.1
3958.6052,31729.1
3959.0190,31895.1
3959.4326,32039.1
3959.8459,31770.1
3960.2595,31811.1
3960.6729,31964.1
3961.0862,32080.1
3961.4993,31921.1
3961.9124,31807.1
3962.3254,31991.1
3962.7383,32017.1
3963.1511,31827.1
3963.5640,31825.1
3963.9766,32008.1
3964.3894,32062.1
3964.8018,31923.1
3965.2144,31946.1
3965.6267,32042.1
3966.0388,32116.1
3966.4512,31840.1
3966.8633,31764.1
3967.2751,31869.1
3967.6873,31845.1
3968.0991,31884.1
3968.5107,31803.1
3968.9226,31971.1
3969.3342,31999.1
3969.7456,31998.1
3970.1572,31893.1
3970.5686,32056.1
3970.9797,32022.1
3971.3911,31968.1
3971.8022,31753.1
3972.2131,32003.1
3972.6243,32080.1
3973.0352,32122.1
3973.4458,31959.1
3973.8567,32145.1
3974.2673,32039.1
3974.6777,31800.1
3975.0881,31740.1
3975.4985,32240.1
3975.9089,32119.1
3976.3191,31963.1
3976.7292,31911.1
3977.1394,32132.1
3977.5493,31985.1
3977.9592,31820.1
3978.3691,31901.1
3978.7788,31978.1
3979.1885,31968.1
3979.5979,31979.1
3980.0076,31965.1
3980.4167,31953.1
3980.8262,31888.1
3981.2354,31893.1
3981.6445,31821.1
3982.0537,31999.1
3982.4626,32018.1
3982.8716,31881.1
3983.2803,32045.1
3983.6892,32193.1
3984.0979,32011.1
3984.5063,31916.1
3984.9148,32024.1
3985.3232,32008.1
3985.7317,31928.1
3986.1399,31857.1
3986.5481,32026.1
3986.9561,32114.1
3987.3643,31989.1
3987.7720,31999.1
3988.1799,31943.1
3988.5876,32237.1
3988.9954,32181.1
3989.4031,32014.1
3989.8105,32047.1
3990.2180,32234.1
3990.6252,32123.1
3991.0325,32133.1
3991.4397,31987.1
3991.8469,32109.1
3992.2539,32144.1
3992.6609,32051.1
3993.0676,32146.1
3993.4746,32263.1
3993.8811,32236.1
3994.2878,32126.1
3994.6943,32232.1
3995.1008,32172.1
3995.5071,32179.1
3995.9136,32013.1
3996.3196,32038.1
3996.7258,32277.1
3997.1318,32352.1
3997.5378,32015.1
3997.9438,32272.1
3998.3496,32246.1
3998.7554,32185.1
3999.1609,32012.1
3999.5664,31996.1
3999.9719,32252.1
4000.3774,32399.1

##### Extended Information
[āRāüāōāgÅŅĢ±]
ÄÄŚ┐¢╝,
āRāüāōāg,
æ¬ÆĶÄę
ÅŖæ«
ē’Äą,Ģ║ī╔ī¦Ś¦æÕŖwæÕŖwē@ŹHŖwīżŗåē╚

[āfü[ā^ÅŅĢ±]
ŹņÉ¼ō·Ä×,2025/10/25 14:47

āfü[ā^ā^āCāv,ĢsōÖŖįŖuāfü[ā^
ēĪÄ▓,Raman Shift [cm-1]
ÅcÄ▓,Int.
āXā^ü[āg,999.935 cm-1
āGāōāh,4000.38 cm-1
āfü[ā^Éö,5264    

[æ¬ÆĶÅŅĢ±]
ŗ@ÄĒ¢╝,NRS-4500
āVāŖāAāŗöįŹå,C004261984

æ¬ÆĶō·Ä×,2025/10/25 14:43

śIī§Ä×Ŗį,0.5 sec
ÉŽÄZē±Éö,1
ÆåÉSögÉö,1618.53 cm-1
ZāXāeü[āWł╩Æu,14304.9 um
ārājāōāOÅŃī└,70
ārājāōāOē║ī└,129
ŚLī°ā`āāāōālāŗö═ł═,1 - 1650
Shift Speed,13 usecs
Readout Rate,1.48MHz at 16-bit
Pre-Amplifier Gain,1x
Enable Keep Cleans,ON
Baseline Clamp,OFF
CCD,DR32400_FI

ŚŃŗNögÆĘ,531.94 nm
Ģ¬ī§ŖĒ,āVāōāOāŗ
āOāīü[āeāBāōāO,L2400
āXāŖābāgĢØ,100 x 8000 um
āŖāWāFāNāVāćāōātāBāŗā^ü[,531.9 nm
Ģ¬ē­,4.35 cm-1, 0.70 cm-1/pixel
æ╬Ģ©āīāōāY,MPLFLN 100 x
BS/DM,BS 30/70
āīü[āUü[ŗŁōx,18.9 mW
īĖī§ŖĒ,100%(āIü[āvāō)
ēFÆłÉ³Å£ŗÄ,On
CCDēĘōx,-60.0 C
ögÉöāVātāg,-2.70 cm-1

