TITLE,
DATA TYPE,RAMAN SPECTRUM
ORIGIN,JASCO
OWNER,
DATE,25/10/24
TIME,12:30:55
SPECTROMETER/DATA SYSTEM,
LOCALE,1041
XUNITS,1/CM
YUNITS,INTENSITY
FIRSTX,  999.9351
LASTX, 4000.0090
NPOINTS,    5263
XYDATA
999.9351,2137
1000.7448,2152
1001.5543,2139
1002.3637,2159
1003.1730,2164
1003.9821,2162
1004.7911,2143
1005.5999,2162
1006.4086,2190
1007.2171,2174
1008.0255,2190
1008.8337,2159
1009.6418,2169
1010.4497,2197
1011.2575,2177
1012.0651,2184
1012.8726,2197
1013.6799,2195
1014.4871,2184
1015.2941,2229
1016.1010,2232
1016.9078,2224
1017.7144,2205
1018.5208,2233
1019.3271,2204
1020.1332,2221
1020.9392,2223
1021.7451,2245
1022.5508,2239
1023.3563,2225
1024.1617,2237
1024.9669,2229
1025.7721,2231
1026.5770,2257
1027.3818,2232
1028.1865,2246
1028.9910,2275
1029.7954,2274
1030.5996,2248
1031.4037,2275
1032.2075,2269
1033.0114,2287
1033.8149,2286
1034.6184,2264
1035.4218,2281
1036.2250,2315
1037.0280,2266
1037.8308,2312
1038.6335,2274
1039.4362,2300
1040.2386,2318
1041.0409,2305
1041.8430,2321
1042.6450,2311
1043.4469,2328
1044.2487,2348
1045.0502,2340
1045.8516,2345
1046.6528,2317
1047.4540,2340
1048.2549,2370
1049.0557,2350
1049.8564,2361
1050.6569,2377
1051.4573,2393
1052.2576,2399
1053.0576,2372
1053.8575,2392
1054.6573,2397
1055.4569,2400
1056.2565,2412
1057.0558,2408
1057.8550,2419
1058.6541,2407
1059.4529,2430
1060.2517,2434
1061.0503,2436
1061.8488,2413
1062.6471,2426
1063.4452,2453
1064.2433,2438
1065.0411,2430
1065.8389,2454
1066.6365,2463
1067.4338,2446
1068.2312,2469
1069.0283,2509
1069.8253,2476
1070.6222,2491
1071.4188,2479
1072.2155,2485
1073.0118,2526
1073.8081,2515
1074.6042,2485
1075.4001,2526
1076.1959,2514
1076.9917,2509
1077.7872,2542
1078.5825,2521
1079.3778,2532
1080.1729,2528
1080.9679,2540
1081.7627,2536
1082.5573,2560
1083.3518,2552
1084.1461,2567
1084.9403,2557
1085.7344,2578
1086.5283,2551
1087.3221,2558
1088.1157,2566
1088.9093,2587
1089.7026,2595
1090.4957,2578
1091.2888,2581
1092.0817,2606
1092.8745,2566
1093.6671,2578
1094.4596,2593
1095.2518,2597
1096.0441,2635
1096.8361,2610
1097.6279,2605
1098.4197,2632
1099.2113,2624
1100.0027,2635
1100.7939,2622
1101.5852,2645
1102.3762,2631
1103.1670,2654
1103.9578,2645
1104.7483,2646
1105.5387,2663
1106.3290,2646
1107.1191,2635
1107.9092,2662
1108.6990,2658
1109.4886,2665
1110.2782,2676
1111.0676,2679
1111.8569,2716
1112.6460,2671
1113.4351,2686
1114.2239,2690
1115.0126,2695
1115.8010,2670
1116.5895,2705
1117.3777,2709
1118.1658,2703
1118.9537,2698
1119.7416,2668
1120.5293,2700
1121.3168,2704
1122.1041,2667
1122.8914,2710
1123.6785,2713
1124.4655,2705
1125.2522,2702
1126.0389,2732
1126.8254,2696
1127.6118,2720
1128.3979,2745
1129.1841,2742
1129.9700,2748
1130.7559,2754
1131.5415,2745
1132.3269,2716
1133.1123,2752
1133.8976,2745
1134.6826,2743
1135.4675,2749
1136.2523,2732
1137.0370,2777
1137.8214,2777
1138.6058,2753
1139.3900,2770
1140.1741,2775
1140.9580,2787
1141.7417,2789
1142.5254,2772
1143.3088,2754
1144.0922,2817
1144.8754,2767
1145.6584,2809
1146.4414,2784
1147.2241,2798
1148.0067,2826
1148.7892,2823
1149.5715,2805
1150.3538,2873
1151.1359,2809
1151.9177,2883
1152.6995,2849
1153.4811,2836
1154.2626,2872
1155.0439,2841
1155.8251,2881
1156.6061,2886
1157.3871,2862
1158.1677,2909
1158.9484,2896
1159.7289,2869
1160.5092,2891
1161.2894,2899
1162.0695,2908
1162.8494,2919
1163.6290,2927
1164.4087,2918
1165.1881,2926
1165.9675,2940
1166.7467,2928
1167.5256,2953
1168.3046,2927
1169.0834,2952
1169.8619,2971
1170.6404,2959
1171.4187,2983
1172.1969,2995
1172.9750,2977
1173.7528,2997
1174.5306,3010
1175.3082,2999
1176.0857,2989
1176.8630,2985
1177.6401,3031
1178.4172,3020
1179.1941,3028
1179.9708,3028
1180.7476,3029
1181.5239,3046
1182.3003,3022
1183.0765,3049
1183.8525,3072
1184.6284,3045
1185.4042,3068
1186.1798,3058
1186.9553,3080
1187.7306,3087
1188.5057,3099
1189.2809,3143
1190.0558,3102
1190.8304,3109
1191.6051,3124
1192.3796,3124
1193.1539,3129
1193.9281,3119
1194.7021,3167
1195.4761,3193
1196.2499,3148
1197.0234,3173
1197.7970,3144
1198.5703,3152
1199.3435,3163
1200.1166,3188
1200.8895,3165
1201.6622,3203
1202.4349,3208
1203.2074,3226
1203.9797,3208
1204.7520,3230
1205.5240,3233
1206.2959,3214
1207.0677,3242
1207.8394,3234
1208.6108,3238
1209.3822,3259
1210.1534,3232
1210.9246,3274
1211.6954,3294
1212.4662,3282
1213.2369,3256
1214.0074,3274
1214.7777,3298
1215.5480,3294
1216.3181,3292
1217.0880,3254
1217.8578,3323
1218.6274,3370
1219.3970,3313
1220.1664,3318
1220.9357,3328
1221.7047,3391
1222.4736,3352
1223.2426,3357
1224.0112,3371
1224.7797,3354
1225.5481,3398
1226.3164,3393
1227.0845,3386
1227.8524,3393
1228.6202,3390
1229.3879,3409
1230.1555,3418
1230.9230,3391
1231.6902,3431
1232.4573,3436
1233.2244,3445
1233.9912,3416
1234.7578,3473
1235.5244,3465
1236.2909,3499
1237.0571,3471
1237.8232,3475
1238.5894,3496
1239.3551,3546
1240.1208,3573
1240.8865,3498
1241.6519,3537
1242.4172,3528
1243.1824,3512
1243.9474,3551
1244.7123,3596
1245.4771,3580
1246.2416,3567
1247.0061,3558
1247.7704,3612
1248.5345,3619
1249.2986,3625
1250.0625,3624
1250.8263,3619
1251.5900,3629
1252.3534,3678
1253.1167,3683
1253.8799,3672
1254.6429,3675
1255.4059,3667
1256.1687,3722
1256.9314,3699
1257.6938,3695
1258.4562,3730
1259.2184,3766
1259.9805,3805
1260.7424,3764
1261.5043,3784
1262.2660,3827
1263.0275,3777
1263.7888,3819
1264.5500,3810
1265.3112,3837
1266.0721,3885
1266.8330,3871
1267.5936,3848
1268.3542,3889
1269.1146,3908
1269.8749,3940
1270.6350,3900
1271.3950,3961
1272.1549,3917
1272.9147,4012
1273.6742,3987
1274.4336,4023
1275.1929,3998
1275.9520,4054
1276.7111,4074
1277.4700,4053
1278.2288,4053
1278.9873,4066
1279.7458,4103
1280.5042,4126
1281.2623,4172
1282.0204,4145
1282.7783,4161
1283.5360,4160
1284.2937,4178
1285.0511,4224
1285.8085,4247
1286.5657,4243
1287.3228,4239
1288.0797,4264
1288.8365,4296
1289.5931,4302
1290.3497,4291
1291.1061,4368
1291.8623,4369
1292.6184,4380
1293.3744,4376
1294.1302,4411
1294.8860,4402
1295.6415,4446
1296.3970,4474
1297.1522,4433
1297.9073,4516
1298.6624,4470
1299.4172,4539
1300.1719,4543
1300.9265,4569
1301.6809,4610
1302.4353,4572
1303.1895,4592
1303.9435,4684
1304.6974,4634
1305.4512,4681
1306.2047,4684
1306.9583,4704
1307.7115,4726
1308.4647,4745
1309.2179,4739
1309.9708,4784
1310.7235,4821
1311.4762,4835
1312.2288,4894
1312.9811,4896
1313.7334,4940
1314.4855,5030
1315.2374,5027
1315.9893,5028
1316.7410,5097
1317.4926,5114
1318.2439,5161
1318.9952,5242
1319.7463,5303
1320.4973,5339
1321.2482,5406
1321.9989,5536
1322.7495,5663
1323.5000,5830
1324.2502,6103
1325.0005,6489
1325.7505,7236
1326.5005,8604
1327.2502,11036
1327.9999,14848
1328.7493,18911
1329.4987,22225
1330.2479,23467
1330.9969,21820
1331.7460,17471
1332.4948,12704
1333.2434,9399
1333.9919,7652
1334.7404,6883
1335.4886,6420
1336.2367,6232
1336.9847,6129
1337.7325,6039
1338.4803,5967
1339.2279,5974
1339.9753,5928
1340.7227,5955
1341.4697,5862
1342.2168,5916
1342.9637,5915
1343.7104,5981
1344.4570,5997
1345.2036,5925
1345.9500,5984
1346.6962,6038
1347.4423,6065
1348.1881,6087
1348.9340,6071
1349.6796,6066
1350.4252,6204
1351.1705,6243
1351.9158,6259
1352.6609,6299
1353.4059,6305
1354.1508,6331
1354.8955,6433
1355.6400,6482
1356.3845,6462
1357.1288,6497
1357.8729,6619
1358.6169,6571
1359.3608,6654
1360.1046,6643
1360.8483,6711
1361.5917,6719
1362.3351,6802
1363.0782,6875
1363.8214,6890
1364.5643,6882
1365.3071,7037
1366.0498,7045
1366.7924,7080
1367.5348,7123
1368.2770,7190
1369.0192,7283
1369.7611,7325
1370.5031,7346
1371.2448,7382
1371.9863,7440
1372.7278,7529
1373.4691,7582
1374.2102,7666
1374.9513,7667
1375.6923,7718
1376.4330,7869
1377.1736,7869
1377.9141,7975
1378.6545,7950
1379.3948,8099
1380.1348,8138
1380.8748,8162
1381.6146,8257
1382.3542,8278
1383.0939,8358
1383.8333,8393
1384.5725,8505
1385.3118,8491
1386.0508,8530
1386.7897,8642
1387.5283,8757
1388.2670,8765
1389.0055,8803
1389.7438,8963
1390.4821,8997
1391.2201,9039
1391.9580,9059
1392.6958,9228
1393.4335,9212
1394.1710,9317
1394.9084,9377
1395.6456,9422
1396.3828,9430
1397.1198,9572
1397.8567,9670
1398.5934,9691
1399.3300,9855
1400.0664,9841
1400.8027,9856
1401.5389,10001
1402.2750,10014
1403.0109,10089
1403.7467,10164
1404.4823,10170
1405.2179,10225
1405.9532,10238
1406.6885,10377
1407.4236,10439
1408.1586,10545
1408.8934,10561
1409.6281,10566
1410.3627,10630
1411.0972,10686
1411.8314,10723
1412.5656,10712
1413.2997,10787
1414.0336,10849
1414.7673,10855
1415.5010,10787
1416.2345,10872
1416.9678,11015
1417.7010,10980
1418.4341,10998
1419.1671,10982
1419.8999,11010
1420.6327,11110
1421.3652,11101
1422.0977,11143
1422.8300,11136
1423.5621,11211
1424.2941,11152
1425.0260,11188
1425.7578,11157
1426.4894,11110
1427.2209,11141
1427.9523,11221
1428.6835,11260
1429.4146,11205
1430.1455,11185
1430.8763,11180
1431.6071,11203
1432.3376,11115
1433.0680,11158
1433.7983,11101
1434.5286,11105
1435.2585,11066
1435.9884,11118
1436.7181,11073
1437.4478,10946
1438.1772,10877
1438.9066,10960
1439.6359,10941
1440.3650,10942
1441.0940,10858
1441.8228,10835
1442.5515,10829
1443.2800,10804
1444.0084,10702
1444.7368,10667
1445.4650,10564
1446.1930,10645
1446.9209,10625
1447.6486,10482
1448.3762,10494
1449.1038,10464
1449.8311,10368
1450.5583,10366
1451.2854,10307
1452.0125,10269
1452.7393,10258
1453.4659,10138
1454.1925,10118
1454.9189,10049
1455.6453,10011
1456.3715,9921
1457.0974,9897
1457.8234,9911
1458.5492,9823
1459.2748,9759
1460.0002,9673
1460.7257,9680
1461.4509,9674
1462.1760,9610
1462.9010,9551
1463.6259,9473
1464.3506,9451
1465.0752,9403
1465.7996,9411
1466.5239,9325
1467.2482,9247
1467.9722,9185
1468.6960,9165
1469.4199,9166
1470.1436,9096
1470.8671,9058
1471.5905,8969
1472.3137,8946
1473.0369,8960
1473.7599,8860
1474.4827,8762
1475.2054,8773
1475.9281,8728
1476.6505,8742
1477.3729,8731
1478.0951,8572
1478.8171,8570
1479.5391,8591
1480.2609,8493
1480.9825,8487
1481.7041,8414
1482.4255,8366
1483.1469,8385
1483.8680,8323
1484.5890,8316
1485.3099,8197
1486.0306,8229
1486.7512,8185
1487.4718,8216
1488.1921,8134
1488.9124,8142
1489.6324,8054
1490.3524,8050
1491.0723,8019
1491.7920,7954
1492.5116,7943
1493.2310,7962
1493.9503,7888
1494.6696,7925
1495.3885,7863
1496.1074,7859
1496.8263,7828
1497.5449,7787
1498.2634,7771
1498.9818,7798
1499.7001,7758
1500.4182,7727
1501.1362,7661
1501.8541,7678
1502.5719,7633
1503.2894,7613
1504.0070,7580
1504.7242,7589
1505.4415,7565
1506.1586,7553
1506.8756,7503
1507.5924,7512
1508.3091,7456
1509.0256,7452
1509.7421,7416
1510.4584,7437
1511.1746,7440
1511.8906,7339
1512.6064,7414
1513.3223,7442
1514.0380,7361
1514.7534,7327
1515.4689,7344
1516.1841,7297
1516.8992,7311
1517.6143,7347
1518.3291,7238
1519.0438,7261
1519.7584,7221
1520.4729,7275
1521.1873,7233
1521.9015,7180
1522.6155,7218
1523.3295,7148
1524.0433,7269
1524.7570,7223
1525.4706,7148
1526.1840,7118
1526.8973,7114
1527.6105,7180
1528.3235,7134
1529.0365,7124
1529.7493,7060
1530.4619,7119
1531.1744,7109
1531.8868,7109
1532.5991,7074
1533.3112,7057
1534.0232,7022
1534.7351,7053
1535.4468,7061
1536.1584,7046
1536.8699,7016
1537.5813,7020
1538.2925,7017
1539.0035,7030
1539.7146,6973
1540.4254,7022
1541.1361,6988
1541.8467,7027
1542.5571,7008
1543.2675,7052
1543.9777,6963
1544.6877,7016
1545.3976,7049
1546.1074,6973
1546.8171,7012
1547.5266,6926
1548.2361,6987
1548.9453,6932
1549.6545,6982
1550.3635,6922
1551.0724,6938
1551.7811,6846
1552.4899,6952
1553.1984,6966
1553.9067,6930
1554.6150,6893
1555.3231,6892
1556.0310,6897
1556.7389,6935
1557.4467,6896
1558.1543,6874
1558.8617,6807
1559.5691,6882
1560.2762,6860
1560.9834,6854
1561.6903,6861
1562.3972,6834
1563.1039,6829
1563.8104,6869
1564.5168,6873
1565.2233,6860
1565.9294,6847
1566.6355,6881
1567.3414,6901
1568.0472,6873
1568.7528,6834
1569.4584,6818
1570.1638,6811
1570.8691,6864
1571.5742,6841
1572.2793,6845
1572.9843,6814
1573.6890,6772
1574.3937,6804
1575.0981,6794
1575.8025,6848
1576.5068,6799
1577.2109,6775
1577.9149,6849
1578.6188,6816
1579.3225,6802
1580.0261,6771
1580.7296,6793
1581.4330,6832
1582.1362,6802
1582.8394,6842
1583.5424,6823
1584.2451,6800
1584.9479,6796
1585.6505,6854
1586.3529,6872
1587.0553,6791
1587.7574,6870
1588.4596,6843
1589.1615,6825
1589.8634,6844
1590.5651,6860
1591.2666,6831
1591.9680,6827
1592.6693,6898
1593.3706,6907
1594.0717,6930
1594.7726,6899
1595.4734,6917
1596.1741,6923
1596.8745,6864
1597.5750,6914
1598.2753,6919
1598.9755,6929
1599.6754,6906
1600.3754,6963
1601.0752,6933
1601.7748,6954
1602.4744,6951
1603.1737,6927
1603.8730,6920
1604.5721,6983
1605.2712,6985
1605.9701,6981
1606.6688,6991
1607.3674,6969
1608.0659,7023
1608.7644,7051
1609.4626,6991
1610.1608,7031
1610.8588,7080
1611.5566,7045
1612.2544,7077
1612.9520,7049
1613.6494,7026
1614.3468,7055
1615.0441,7141
1615.7412,7102
1616.4381,7082
1617.1350,7147
1617.8318,7084
1618.5283,7140
1619.2249,7125
1619.9211,7168
1620.6174,7120
1621.3135,7147
1622.0094,7204
1622.7053,7191
1623.4010,7205
1624.0966,7182
1624.7920,7198
1625.4874,7188
1626.1826,7240
1626.8777,7229
1627.5726,7197
1628.2675,7185
1628.9622,7246
1629.6567,7261
1630.3512,7236
1631.0455,7271
1631.7397,7291
1632.4337,7262
1633.1277,7328
1633.8215,7319
1634.5153,7345
1635.2087,7332
1635.9022,7321
1636.5956,7307
1637.2887,7352
1637.9818,7385
1638.6747,7374
1639.3676,7403
1640.0602,7355
1640.7527,7418
1641.4452,7398
1642.1375,7417
1642.8296,7376
1643.5217,7388
1644.2136,7376
1644.9054,7459
1645.5970,7415
1646.2886,7462
1646.9801,7428
1647.6714,7457
1648.3625,7493
1649.0536,7472
1649.7445,7526
1650.4353,7519
1651.1260,7472
1651.8164,7529
1652.5068,7536
1653.1971,7500
1653.8873,7542
1654.5774,7484
1655.2672,7565
1655.9570,7526
1656.6467,7576
1657.3362,7532
1658.0256,7589
1658.7150,7541
1659.4041,7603
1660.0931,7577
1660.7820,7591
1661.4708,7565
1662.1594,7585
1662.8480,7585
1663.5364,7587
1664.2247,7595
1664.9128,7604
1665.6008,7627
1666.2887,7642
1666.9766,7675
1667.6642,7654
1668.3517,7598
1669.0391,7707
1669.7264,7664
1670.4136,7764
1671.1006,7681
1671.7875,7657
1672.4742,7662
1673.1609,7760
1673.8474,7719
1674.5338,7745
1675.2201,7697
1675.9063,7759
1676.5923,7747
1677.2782,7772
1677.9640,7729
1678.6497,7721
1679.3351,7791
1680.0205,7790
1680.7058,7790
1681.3910,7762
1682.0760,7820
1682.7609,7760
1683.4457,7824
1684.1304,7850
1684.8148,7889
1685.4993,7821
1686.1836,7855
1686.8677,7782
1687.5518,7867
1688.2356,7866
1688.9194,7854
1689.6030,7926
1690.2866,7901
1690.9700,7886
1691.6533,7895
1692.3364,7915
1693.0195,7915
1693.7024,7968
1694.3853,7930
1695.0679,7944
1695.7504,7978
1696.4329,8006
1697.1151,8017
1697.7972,7980
1698.4794,8032
1699.1613,8013
1699.8430,8015
1700.5247,8017
1701.2063,7971
1701.8877,7972
1702.5690,8092
1703.2501,8129
1703.9312,8089
1704.6121,8074
1705.2930,8021
1705.9736,8122
1706.6542,8167
1707.3346,8138
1708.0149,8162
1708.6951,8142
1709.3751,8141
1710.0551,8190
1710.7349,8210
1711.4146,8174
1712.0941,8165
1712.7736,8170
1713.4529,8198
1714.1321,8231
1714.8112,8271
1715.4901,8194
1716.1689,8252
1716.8477,8181
1717.5261,8255
1718.2046,8279
1718.8829,8250
1719.5612,8303
1720.2393,8278
1720.9172,8314
1721.5950,8370
1722.2727,8336
1722.9503,8324
1723.6278,8333
1724.3052,8377
1724.9823,8429
1725.6594,8420
1726.3364,8351
1727.0133,8429
1727.6899,8438
1728.3666,8429
1729.0431,8425
1729.7194,8514
1730.3956,8394
1731.0718,8449
1731.7477,8502
1732.4236,8512
1733.0994,8461
1733.7749,8442
1734.4504,8492
1735.1259,8496
1735.8010,8532
1736.4762,8543
1737.1512,8544
1737.8260,8528
1738.5009,8595
1739.1754,8627
1739.8500,8645
1740.5244,8628
1741.1986,8610
1741.8728,8663
1742.5468,8604
1743.2207,8676
1743.8944,8652
1744.5681,8637
1745.2417,8624
1745.9150,8652
1746.5884,8646
1747.2615,8740
1747.9346,8711
1748.6074,8683
1749.2803,8692
1749.9529,8846
1750.6255,8703
1751.2979,8792
1751.9702,8709
1752.6423,8674
1753.3145,8795
1753.9865,8784
1754.6582,8768
1755.3300,8755
1756.0015,8773
1756.6730,8779
1757.3442,8736
1758.0155,8855
1758.6865,8808
1759.3575,8824
1760.0283,8809
1760.6991,8813
1761.3696,8846
1762.0402,8796
1762.7104,8815
1763.3807,8842
1764.0508,8851
1764.7208,8912
1765.3906,8824
1766.0604,8798
1766.7300,8845
1767.3995,8843
1768.0688,8926
1768.7382,8827
1769.4072,8887
1770.0763,8880
1770.7451,8827
1771.4139,8829
1772.0825,8896
1772.7511,8943
1773.4196,8885
1774.0878,8838
1774.7560,8888
1775.4240,8921
1776.0919,8996
1776.7596,8936
1777.4274,8871
1778.0950,8907
1778.7623,8911
1779.4297,8961
1780.0968,8889
1780.7639,8890
1781.4308,8863
1782.0977,8908
1782.7644,8985
1783.4309,8923
1784.0974,8912
1784.7638,8902
1785.4299,8882
1786.0961,8913
1786.7621,8983
1787.4279,8932
1788.0936,8947
1788.7593,8956
1789.4247,8972
1790.0901,8984
1790.7554,8907
1791.4204,8965
1792.0854,8912
1792.7504,8935
1793.4152,8950
1794.0797,8916
1794.7443,8987
1795.4087,9003
1796.0730,8874
1796.7371,8917
1797.4011,8956
1798.0651,8983
1798.7289,8884
1799.3926,8959
1800.0560,8970
1800.7195,8931
1801.3828,8992
1802.0460,8964
1802.7091,8933
1803.3721,8950
1804.0349,8945
1804.6976,8996
1805.3602,8969
1806.0227,8948
1806.6849,8998
1807.3472,8980
1808.0093,8913
1808.6713,8954
1809.3331,8929
1809.9949,8958
1810.6566,8933
1811.3181,8977
1811.9795,8989
1812.6407,8969
1813.3019,8964
1813.9629,8941
1814.6238,8886
1815.2845,8974
1815.9452,9001
1816.6058,8977
1817.2662,8950
1817.9265,8927
1818.5867,8967
1819.2467,8988
1819.9067,8915
1820.5665,8937
1821.2262,8908
1821.8857,8955
1822.5453,8906
1823.2046,8959
1823.8638,8979
1824.5229,8938
1825.1819,8920
1825.8408,8925
1826.4995,8953
1827.1581,9013
1827.8167,8894
1828.4750,8933
1829.1333,8943
1829.7914,8988
1830.4495,8969
1831.1074,8995
1831.7651,8946
1832.4229,8918
1833.0803,8949
1833.7378,8993
1834.3951,9005
1835.0522,8993
1835.7094,8914
1836.3663,8964
1837.0231,9010
1837.6798,8907
1838.3364,8961
1838.9929,8950
1839.6493,8932
1840.3054,8998
1840.9615,8984
1841.6176,8991
1842.2734,8951
1842.9292,8906
1843.5848,9013
1844.2404,8973
1844.8958,9007
1845.5510,9012
1846.2062,8924
1846.8612,8944
1847.5161,8903
1848.1709,9006
1848.8256,8992
1849.4802,8965
1850.1346,9010
1850.7889,8955
1851.4431,8985
1852.0973,8909
1852.7512,9012
1853.4050,8930
1854.0588,8932
1854.7124,8923
1855.3658,8981
1856.0193,8917
1856.6725,8983
1857.3257,8950
1857.9786,8950
1858.6316,8970
1859.2843,8939
1859.9370,8996
1860.5895,9018
1861.2419,8934
1861.8943,8904
1862.5464,8967
1863.1985,8951
1863.8505,8997
1864.5023,8942
1865.1541,8914
1865.8055,8952
1866.4570,8920
1867.1084,8987
1867.7596,8936
1868.4108,8925
1869.0618,8925
1869.7126,8975
1870.3634,8989
1871.0140,8945
1871.6646,8895
1872.3149,8846
1872.9653,8989
1873.6155,8987
1874.2655,8911
1874.9154,8945
1875.5653,8895
1876.2150,8843
1876.8645,8871
1877.5140,8931
1878.1633,8861
1878.8125,8894
1879.4617,8838
1880.1106,8918
1880.7595,8920
1881.4083,8987
1882.0569,8887
1882.7054,8844
1883.3539,8840
1884.0021,8902
1884.6503,8836
1885.2983,8929
1885.9463,8810
1886.5940,8846
1887.2417,8857
1887.8893,8885
1888.5367,8853
1889.1841,8807
1889.8313,8840
1890.4784,8853
1891.1254,8808
1891.7723,8840
1892.4191,8851
1893.0657,8789
1893.7122,8798
1894.3585,8814
1895.0049,8754
1895.6510,8834
1896.2971,8852
1896.9430,8811
1897.5887,8757
1898.2345,8741
1898.8800,8834
1899.5255,8817
1900.1709,8789
1900.8160,8790
1901.4612,8771
1902.1062,8771
1902.7511,8792
1903.3958,8774
1904.0404,8742
1904.6849,8708
1905.3293,8742
1905.9736,8764
1906.6178,8744
1907.2618,8695
1907.9058,8713
1908.5496,8734
1909.1932,8752
1909.8369,8723
1910.4803,8709
1911.1237,8692
1911.7670,8726
1912.4100,8650
1913.0530,8763
1913.6959,8696
1914.3386,8676
1914.9813,8743
1915.6238,8712
1916.2662,8674
1916.9086,8692
1917.5507,8677
1918.1927,8711
1918.8347,8694
1919.4766,8671
1920.1183,8690
1920.7599,8691
1921.4014,8669
1922.0427,8708
1922.6840,8654
1923.3251,8632
1923.9661,8671
1924.6069,8679
1925.2477,8699
1925.8884,8636
1926.5289,8591
1927.1693,8691
1927.8097,8637
1928.4498,8714
1929.0900,8697
1929.7299,8625
1930.3698,8655
1931.0095,8629
1931.6490,8661
1932.2886,8697
1932.9280,8695
1933.5673,8679
1934.2064,8568
1934.8453,8653
1935.4843,8719
1936.1230,8616
1936.7618,8617
1937.4004,8607
1938.0388,8600
1938.6771,8721
1939.3153,8628
1939.9535,8690
1940.5914,8648
1941.2292,8652
1941.8671,8694
1942.5046,8654
1943.1422,8615
1943.7797,8665
1944.4169,8611
1945.0541,8581
1945.6912,8683
1946.3281,8719
1946.9648,8717
1947.6016,8611
1948.2382,8661
1948.8746,8664
1949.5110,8613
1950.1473,8700
1950.7834,8699
1951.4194,8718
1952.0553,8667
1952.6912,8639
1953.3268,8681
1953.9623,8755
1954.5978,8639
1955.2330,8681
1955.8683,8691
1956.5034,8731
1957.1383,8784
1957.7732,8736
1958.4080,8738
1959.0426,8770
1959.6771,8732
1960.3115,8765
1960.9458,8721
1961.5800,8722
1962.2140,8768
1962.8479,8739
1963.4817,8754
1964.1155,8750
1964.7490,8800
1965.3824,8807
1966.0159,8841
1966.6490,8746
1967.2822,8818
1967.9153,8715
1968.5481,8799
1969.1809,8766
1969.8136,8757
1970.4462,8762
1971.0786,8758
1971.7109,8835
1972.3431,8804
1972.9752,8794
1973.6072,8866
1974.2390,8835
1974.8707,8807
1975.5024,8827
1976.1339,8852
1976.7654,8841
1977.3966,8870
1978.0278,8818
1978.6588,8851
1979.2898,8914
1979.9207,8840
1980.5514,8870
1981.1819,8843
1981.8124,8874
1982.4427,8890
1983.0730,8876
1983.7031,8956
1984.3333,8819
1984.9631,8901
1985.5929,8931
1986.2225,8901
1986.8522,8928
1987.4816,8879
1988.1110,8901
1988.7401,8951
1989.3693,8917
1989.9983,8906
1990.6272,8951
1991.2559,8858
1991.8845,8952
1992.5131,8989
1993.1415,8901
1993.7698,8999
1994.3981,9051
1995.0261,9005
1995.6541,8988
1996.2819,8961
1996.9097,8963
1997.5372,9027
1998.1648,8937
1998.7921,8913
1999.4194,8977
2000.0466,9026
2000.6737,8948
2001.3005,8994
2001.9274,8967
2002.5541,9016
2003.1807,9004
2003.8073,9059
2004.4336,9033
2005.0598,9000
2005.6859,8985
2006.3120,9028
2006.9379,9031
2007.5637,9032
2008.1893,9093
2008.8149,9043
2009.4404,9024
2010.0657,9057
2010.6909,9033
2011.3160,9021
2011.9410,9124
2012.5659,9046
2013.1907,9030
2013.8154,9042
2014.4399,8983
2015.0643,9044
2015.6887,9085
2016.3129,9060
2016.9370,9066
2017.5609,8985
2018.1848,9054
2018.8086,9036
2019.4323,9061
2020.0557,9116
2020.6791,9048
2021.3024,9091
2021.9257,9084
2022.5487,9048
2023.1716,9105
2023.7944,9100
2024.4172,9101
2025.0398,9159
2025.6624,9080
2026.2847,9085
2026.9070,9101
2027.5292,8999
2028.1512,9107
2028.7731,9104
2029.3949,9152
2030.0166,9155
2030.6383,9133
2031.2598,9017
2031.8811,9188
2032.5023,9085
2033.1235,9126
2033.7445,9193
2034.3655,9122
2034.9862,9164
2035.6069,9153
2036.2275,9121
2036.8480,9218
2037.4684,9163
2038.0886,9177
2038.7087,9137
2039.3287,9127
2039.9486,9242
2040.5684,9180
2041.1881,9118
2041.8076,9212
2042.4271,9143
2043.0464,9144
2043.6656,9262
2044.2848,9188
2044.9038,9229
2045.5227,9241
2046.1415,9219
2046.7601,9272
2047.3787,9200
2047.9971,9127
2048.6155,9225
2049.2336,9166
2049.8518,9208
2050.4697,9231
2051.0876,9245
2051.7053,9334
2052.3230,9234
2052.9404,9258
2053.5579,9263
2054.1753,9229
2054.7925,9339
2055.4094,9301
2056.0266,9255
2056.6433,9284
2057.2600,9273
2057.8767,9246
2058.4932,9342
2059.1096,9239
2059.7261,9297
2060.3420,9287
2060.9583,9259
2061.5742,9313
2062.1899,9360
2062.8059,9300
2063.4214,9342
2064.0369,9320
2064.6523,9313
2065.2676,9307
2065.8828,9268
2066.4978,9313
2067.1128,9409
2067.7278,9330
2068.3423,9409
2068.9570,9324
2069.5715,9356
2070.1860,9391
2070.8003,9364
2071.4143,9354
2072.0283,9373
2072.6423,9380
2073.2561,9495
2073.8699,9386
2074.4836,9361
2075.0972,9482
2075.7104,9363
2076.3237,9469
2076.9368,9526
2077.5500,9412
2078.1628,9409
2078.7756,9353
2079.3884,9432
2080.0010,9539
2080.6135,9515
2081.2258,9404
2081.8381,9550
2082.4504,9419
2083.0625,9473
2083.6743,9495
2084.2861,9466
2084.8979,9535
2085.5095,9437
2086.1208,9478
2086.7324,9551
2087.3435,9525
2087.9548,9518
2088.5659,9519
2089.1768,9525
2089.7876,9545
2090.3982,9583
2091.0088,9591
2091.6194,9642
2092.2297,9535
2092.8401,9580
2093.4502,9577
2094.0603,9578
2094.6702,9648
2095.2800,9628
2095.8896,9500
2096.4993,9609
2097.1089,9558
2097.7183,9622
2098.3274,9686
2098.9365,9634
2099.5457,9603
2100.1545,9671
2100.7634,9611
2101.3721,9721
2101.9807,9675
2102.5894,9600
2103.1975,9732
2103.8059,9639
2104.4141,9651
2105.0222,9749
2105.6301,9655
2106.2378,9693
2106.8457,9730
2107.4531,9710
2108.0608,9671
2108.6680,9755
2109.2754,9672
2109.8826,9802
2110.4895,9696
2111.0964,9790
2111.7034,9798
2112.3101,9687
2112.9167,9776
2113.5232,9742
2114.1296,9695
2114.7358,9695
2115.3420,9703
2115.9480,9715
2116.5540,9790
2117.1599,9796
2117.7656,9781
2118.3711,9838
2118.9768,9730
2119.5820,9738
2120.1875,9729
2120.7925,9739
2121.3977,9731
2122.0027,9762
2122.6074,9782
2123.2122,9799
2123.8169,9786
2124.4214,9785
2125.0256,9783
2125.6299,9742
2126.2341,9820
2126.8384,9831
2127.4421,9755
2128.0461,9779
2128.6499,9752
2129.2534,9750
2129.8569,9841
2130.4604,9788
2131.0637,9804
2131.6670,9834
2132.2700,9770
2132.8730,9829
2133.4758,9782
2134.0786,9834
2134.6812,9876
2135.2837,9816
2135.8862,9833
2136.4885,9797
2136.9880,9828.65
2137.6492,9813.65
2138.3103,9708.65
2138.9714,9814.65
2139.6323,9807.65
2140.2932,9840.65
2140.9539,9730.65
2141.6145,9801.65
2142.2749,9908.65
2142.9351,9889.65
2143.5952,9878.65
2144.2554,9848.65
2144.9153,9894.65
2145.5752,9892.65
2146.2349,9878.65
2146.8945,9857.65
2147.5540,9843.65
2148.2131,9860.65
2148.8726,9789.65
2149.5315,9874.65
2150.1904,9829.65
2150.8494,9890.65
2151.5081,9832.65
2152.1667,9874.65
2152.8252,9834.65
2153.4834,9930.65
2154.1418,9900.65
2154.7998,9891.65
2155.4578,9930.65
2156.1157,9882.65
2156.7734,9850.65
2157.4312,9813.65
2158.0886,9935.65
2158.7461,9933.65
2159.4033,9883.65
2160.0605,9853.65
2160.7175,9868.65
2161.3743,9887.65
2162.0313,9919.65
2162.6877,9837.65
2163.3442,9883.65
2164.0007,9832.65
2164.6570,9908.65
2165.3132,9852.65
2165.9692,9867.65
2166.6252,9864.65
2167.2810,9871.65
2167.9368,9916.65
2168.5923,9815.65
2169.2478,9918.65
2169.9031,9951.65
2170.5583,9913.65
2171.2134,9866.65
2171.8684,9934.65
2172.5232,9946.65
2173.1780,9921.65
2173.8325,9916.65
2174.4871,9874.65
2175.1414,9852.65
2175.7957,9914.65
2176.4497,9960.65
2177.1038,9834.65
2177.7576,9832.65
2178.4114,9936.65
2179.0649,9894.65
2179.7185,9875.65
2180.3718,9917.65
2181.0251,9872.65
2181.6782,9920.65
2182.3313,9884.65
2182.9841,9883.65
2183.6370,9937.65
2184.2896,9904.65
2184.9421,9935.65
2185.5947,9913.65
2186.2468,9939.65
2186.8992,9896.65
2187.5513,9952.65
2188.2031,9939.65
2188.8550,9891.65
2189.5066,9878.65
2190.1582,9910.65
2190.8096,9917.65
2191.4609,9939.65
2192.1123,9939.65
2192.7634,9906.65
2193.4143,9892.65
2194.0652,9917.65
2194.7158,9869.65
2195.3665,9929.65
2196.0171,9875.65
2196.6675,9949.65
2197.3176,9914.65
2197.9678,9955.65
2198.6179,9984.65
2199.2678,9916.65
2199.9175,9939.65
2200.5671,9943.65
2201.2168,9952.65
2201.8662,9964.65
2202.5154,9966.65
2203.1646,9946.65
2203.8137,10007.7
2204.4626,9912.65
2205.1116,9885.65
2205.7603,9969.65
2206.4087,9963.65
2207.0571,9916.65
2207.7056,9894.65
2208.3538,9899.65
2209.0020,10015.7
2209.6499,9980.65
2210.2976,10052.7
2210.9456,9959.65
2211.5930,9934.65
2212.2405,9944.65
2212.8879,9886.65
2213.5352,10031.7
2214.1824,9910.65
2214.8293,9868.65
2215.4763,10023.7
2216.1230,9956.65
2216.7698,9937.65
2217.4163,9963.65
2218.0627,9959.65
2218.7090,9918.65
2219.3552,9961.65
2220.0012,9924.65
2220.6472,10006.7
2221.2930,9916.65
2221.9387,9950.65
2222.5845,9912.65
2223.2300,9995.65
2223.8752,9926.65
2224.5205,9972.65
2225.1655,9904.65
2225.8105,9965.65
2226.4553,9921.65
2227.1001,9973.65
2227.7449,9917.65
2228.3894,9916.65
2229.0337,10041.7
2229.6780,9908.65
2230.3223,9882.65
2230.9663,10053.7
2231.6101,10052.7
2232.2539,9924.65
2232.8977,9970.65
2233.5413,9876.65
2234.1846,9968.65
2234.8281,9945.65
2235.4712,9984.65
2236.1143,9942.65
2236.7573,9922.65
2237.4001,10004.7
2238.0430,9953.65
2238.6855,9984.65
2239.3279,10045.7
2239.9705,9910.65
2240.6125,9955.65
2241.2549,9905.65
2241.8967,9927.65
2242.5388,9916.65
2243.1804,10006.7
2243.8223,9894.65
2244.4636,9944.65
2245.1052,9872.65
2245.7466,9980.65
2246.3877,9951.65
2247.0288,9876.65
2247.6697,9977.65
2248.3105,9839.65
2248.9512,9933.65
2249.5918,9917.65
2250.2324,9941.65
2250.8728,9941.65
2251.5129,9912.65
2252.1531,9870.65
2252.7930,9908.65
2253.4329,9931.65
2254.0728,9983.65
2254.7124,9982.65
2255.3521,9846.65
2255.9915,9928.65
2256.6306,10000.7
2257.2698,9913.65
2257.9089,9908.65
2258.5479,9896.65
2259.1868,9880.65
2259.8254,9871.65
2260.4641,9911.65
2261.1025,10054.7
2261.7407,9893.65
2262.3792,10030.7
2263.0171,9856.65
2263.6553,9913.65
2264.2930,9901.65
2264.9309,9946.65
2265.5686,9878.65
2266.2061,9902.65
2266.8435,9838.65
2267.4807,9863.65
2268.1179,9947.65
2268.7549,9839.65
2269.3918,9919.65
2270.0288,9927.65
2270.6655,9874.65
2271.3020,9874.65
2271.9385,9863.65
2272.5750,9878.65
2273.2112,9878.65
2273.8472,9819.65
2274.4832,9872.65
2275.1191,9912.65
2275.7549,9871.65
2276.3906,9912.65
2277.0261,9861.65
2277.6614,9836.65
2278.2969,9876.65
2278.9319,9918.65
2279.5671,9965.65
2280.2019,9831.65
2280.8369,9865.65
2281.4714,9904.65
2282.1062,9884.65
2282.7405,9873.65
2283.3750,9823.65
2284.0093,9898.65
2284.6433,9825.65
2285.2773,9862.65
2285.9111,9810.65
2286.5449,9884.65
2287.1787,9827.65
2287.8123,9845.65
2288.4456,9859.65
2289.0789,9857.65
2289.7122,9848.65
2290.3452,9843.65
2290.9780,9899.65
2291.6111,9818.65
2292.2437,9897.65
2292.8762,9837.65
2293.5088,9895.65
2294.1411,9852.65
2294.7734,9836.65
2295.4055,9902.65
2296.0376,9798.65
2296.6694,9790.65
2297.3013,9861.65
2297.9329,9897.65
2298.5645,9896.65
2299.1958,9832.65
2299.8271,9799.65
2300.4585,9820.65
2301.0896,9866.65
2301.7205,9897.65
2302.3513,9846.65
2302.9822,9798.65
2303.6128,9899.65
2304.2432,9846.65
2304.8735,9836.65
2305.5039,9912.65
2306.1340,9855.65
2306.7642,9859.65
2307.3940,9904.65
2308.0237,9882.65
2308.6536,9864.65
2309.2830,9907.65
2309.9126,9864.65
2310.5417,9924.65
2311.1711,9828.65
2311.8003,9912.65
2312.4292,9910.65
2313.0581,9858.65
2313.6868,9864.65
2314.3154,9819.65
2314.9438,9874.65
2315.5723,9909.65
2316.2007,9889.65
2316.8289,9925.65
2317.4568,9810.65
2318.0850,9851.65
2318.7126,9902.65
2319.3403,9919.65
2319.9680,9827.65
2320.5955,9878.65
2321.2229,9857.65
2321.8501,9928.65
2322.4773,9871.65
2323.1042,9798.65
2323.7312,9813.65
2324.3579,9869.65
2324.9846,9851.65
2325.6111,9872.65
2326.2375,9842.65
2326.8640,9856.65
2327.4902,9897.65
2328.1162,9964.65
2328.7422,9874.65
2329.3682,9911.65
2329.9939,9878.65
2330.6194,9851.65
2331.2449,9960.65
2331.8704,9905.65
2332.4956,9880.65
2333.1208,9919.65
2333.7458,9931.65
2334.3708,9951.65
2334.9956,9968.65
2335.6204,9891.65
2336.2449,9924.65
2336.8694,9908.65
2337.4937,9935.65
2338.1179,9899.65
2338.7422,10016.7
2339.3662,9961.65
2339.9900,9956.65
2340.6138,9917.65
2341.2375,9963.65
2341.8611,9975.65
2342.4844,9978.65
2343.1077,9919.65
2343.7310,9866.65
2344.3540,9901.65
2344.9771,9955.65
2345.5999,10025.7
2346.2227,10033.7
2346.8452,9968.65
2347.4678,10014.7
2348.0901,9970.65
2348.7124,10002.7
2349.3347,10073.7
2349.9568,9957.65
2350.5786,9911.65
2351.2004,9938.65
2351.8223,10026.7
2352.4438,9980.65
2353.0652,9922.65
2353.6865,9953.65
2354.3079,10013.7
2354.9290,9978.65
2355.5500,9980.65
2356.1709,10028.7
2356.7917,10008.7
2357.4124,10033.7
2358.0330,10009.7
2358.6533,9978.65
2359.2737,10025.7
2359.8940,10069.7
2360.5139,10053.7
2361.1340,10017.7
2361.7539,10021.7
2362.3735,9969.65
2362.9934,10051.7
2363.6128,10051.7
2364.2322,9984.65
2364.8516,10002.7
2365.4707,10005.7
2366.0898,9985.65
2366.7087,9981.65
2367.3276,10089.7
2367.9463,9970.65
2368.5649,10027.7
2369.1833,10039.7
2369.8018,10062.7
2370.4202,9961.65
2371.0383,9975.65
2371.6563,10042.7
2372.2742,10036.7
2372.8921,9970.65
2373.5098,10008.7
2374.1274,10099.7
2374.7449,10071.7
2375.3621,9971.65
2375.9795,10028.7
2376.5964,9891.65
2377.2136,9983.65
2377.8306,10073.7
2378.4473,10101.7
2379.0640,10016.7
2379.6804,10050.7
2380.2969,10029.7
2380.9133,10034.7
2381.5295,10020.7
2382.1455,10066.7
2382.7615,10113.7
2383.3774,10001.7
2383.9932,10054.7
2384.6089,9998.65
2385.2244,10009.7
2385.8398,10041.7
2386.4551,10069.7
2387.0703,10004.7
2387.6853,10023.7
2388.3003,10034.7
2388.9153,10044.7
2389.5300,10122.7
2390.1445,10041.7
2390.7590,10002.7
2391.3735,10043.7
2391.9878,10016.7
2392.6018,10112.7
2393.2161,10148.7
2393.8298,10127.7
2394.4438,10012.7
2395.0574,10038.7
2395.6711,10026.7
2396.2847,10075.7
2396.8979,10039.7
2397.5112,9972.65
2398.1243,10105.7
2398.7373,10052.7
2399.3503,10077.7
2399.9631,10032.7
2400.5757,10043.7
2401.1885,10082.7
2401.8008,10057.7
2402.4133,9959.65
2403.0254,10001.7
2403.6377,10068.7
2404.2495,10070.7
2404.8616,10074.7
2405.4734,10066.7
2406.0850,10013.7
2406.6965,10088.7
2407.3079,10116.7
2407.9194,10068.7
2408.5305,10078.7
2409.1416,9940.65
2409.7527,10070.7
2410.3635,10083.7
2410.9744,10113.7
2411.5850,10195.7
2412.1956,10052.7
2412.8059,10060.7
2413.4163,10084.7
2414.0264,10048.7
2414.6365,10136.7
2415.2466,10190.7
2415.8564,10022.7
2416.4661,10014.7
2417.0759,10016.7
2417.6853,10098.7
2418.2947,10112.7
2418.9041,10072.7
2419.5132,10101.7
2420.1223,10092.7
2420.7312,10062.7
2421.3401,10051.7
2421.9490,10109.7
2422.5576,10113.7
2423.1660,10122.7
2423.7744,10138.7
2424.3828,10082.7
2424.9910,10160.7
2425.5991,10146.7
2426.2070,10092.7
2426.8147,10124.7
2427.4226,10105.7
2428.0303,10151.7
2428.6377,10103.7
2429.2451,10123.7
2429.8523,10119.7
2430.4595,10180.7
2431.0667,10215.7
2431.6736,10077.7
2432.2803,10128.7
2432.8870,10196.7
2433.4937,10128.7
2434.1001,10160.7
2434.7065,10174.7
2435.3127,10163.7
2435.9189,10277.7
2436.5249,10175.7
2437.1309,10255.7
2437.7368,10182.7
2438.3425,10142.7
2438.9480,10226.7
2439.5535,10172.7
2440.1589,10212.7
2440.7642,10227.7
2441.3694,10160.7
2441.9744,10195.7
2442.5793,10181.7
2443.1841,10215.7
2443.7888,10270.7
2444.3933,10207.7
2444.9978,10210.7
2445.6023,10179.7
2446.2065,10181.7
2446.8105,10215.7
2447.4148,10328.7
2448.0186,10192.7
2448.6223,10279.7
2449.2261,10268.7
2449.8296,10150.7
2450.4331,10281.7
2451.0366,10271.7
2451.6399,10280.7
2452.2429,10214.7
2452.8459,10239.7
2453.4490,10235.7
2454.0518,10267.7
2454.6543,10302.7
2455.2568,10349.7
2455.8594,10318.7
2456.4617,10255.7
2457.0640,10284.7
2457.6663,10398.7
2458.2681,10315.7
2458.8701,10345.7
2459.4719,10335.7
2460.0735,10258.7
2460.6750,10359.7
2461.2766,10306.7
2461.8779,10348.7
2462.4792,10407.7
2463.0803,10363.7
2463.6814,10368.7
2464.2822,10287.7
2464.8831,10343.7
2465.4836,10313.7
2466.0842,10363.7
2466.6848,10415.7
2467.2852,10355.7
2467.8855,10344.7
2468.4856,10321.7
2469.0854,10357.7
2469.6855,10417.7
2470.2852,10368.7
2470.8850,10399.7
2471.4846,10281.7
2472.0840,10385.7
2472.6833,10342.7
2473.2827,10392.7
2473.8818,10431.7
2474.4807,10449.7
2475.0796,10345.7
2475.6785,10370.7
2476.2771,10437.7
2476.8757,10456.7
2477.4741,10404.7
2478.0725,10339.7
2478.6709,10408.7
2479.2690,10382.7
2479.8669,10397.7
2480.4648,10445.7
2481.0627,10466.7
2481.6604,10365.7
2482.2581,10478.7
2482.8555,10484.7
2483.4529,10438.7
2484.0500,10496.7
2484.6472,10509.7
2485.2441,10399.7
2485.8411,10453.7
2486.4380,10414.7
2487.0347,10442.7
2487.6313,10440.7
2488.2278,10495.7
2488.8240,10473.7
2489.4204,10495.7
2490.0166,10418.7
2490.6125,10526.7
2491.2085,10512.7
2491.8042,10534.7
2492.3999,10543.7
2492.9956,10503.7
2493.5911,10472.7
2494.1865,10453.7
2494.7817,10516.7
2495.3770,10516.7
2495.9719,10529.7
2496.5669,10453.7
2497.1616,10465.7
2497.7563,10472.7
2498.3511,10551.7
2498.9456,10506.7
2499.5398,10495.7
2500.1340,10567.7
2500.7283,10494.7
2501.3223,10565.7
2501.9163,10476.7
2502.5100,10489.7
2503.1038,10487.7
2503.6975,10441.7
2504.2910,10502.7
2504.8843,10518.7
2505.4775,10572.7
2506.0708,10546.7
2506.6638,10554.7
2507.2568,10535.7
2507.8496,10517.7
2508.4424,10513.7
2509.0349,10537.7
2509.6274,10567.7
2510.2200,10540.7
2510.8123,10535.7
2511.4043,10481.7
2511.9966,10599.7
2512.5884,10621.7
2513.1804,10534.7
2513.7720,10590.7
2514.3638,10581.7
2514.9553,10533.7
2515.5466,10609.7
2516.1379,10618.7
2516.7292,10577.7
2517.3203,10627.7
2517.9111,10583.7
2518.5022,10610.7
2519.0928,10560.7
2519.6836,10593.7
2520.2742,10680.7
2520.8645,10627.7
2521.4548,10662.7
2522.0449,10569.7
2522.6353,10541.7
2523.2251,10618.7
2523.8149,10639.7
2524.4048,10626.7
2524.9944,10640.7
2525.5840,10587.7
2526.1736,10605.7
2526.7629,10656.7
2527.3521,10713.7
2527.9412,10674.7
2528.5303,10631.7
2529.1191,10639.7
2529.7080,10584.7
2530.2966,10572.7
2530.8853,10616.7
2531.4736,10682.7
2532.0620,10755.7
2532.6501,10634.7
2533.2383,10621.7
2533.8264,10602.7
2534.4143,10622.7
2535.0022,10691.7
2535.5898,10705.7
2536.1775,10735.7
2536.7649,10623.7
2537.3523,10696.7
2537.9397,10608.7
2538.5269,10748.7
2539.1138,10745.7
2539.7007,10666.7
2540.2876,10694.7
2540.8743,10706.7
2541.4609,10710.7
2542.0474,10700.7
2542.6338,10743.7
2543.2202,10772.7
2543.8064,10754.7
2544.3923,10681.7
2544.9783,10739.7
2545.5642,10756.7
2546.1499,10808.7
2546.7356,10724.7
2547.3210,10816.7
2547.9065,10733.7
2548.4919,10819.7
2549.0771,10796.7
2549.6621,10746.7
2550.2471,10784.7
2550.8320,10756.7
2551.4167,10786.7
2552.0015,10781.7
2552.5859,10801.7
2553.1704,10801.7
2553.7549,10808.7
2554.3391,10782.7
2554.9231,10840.7
2555.5073,10755.7
2556.0911,10850.7
2556.6748,10868.7
2557.2585,10844.7
2557.8423,10854.7
2558.4258,10826.7
2559.0090,10864.7
2559.5923,10817.7
2560.1755,10880.7
2560.7585,10934.7
2561.3413,10854.7
2561.9243,10772.7
2562.5068,10841.7
2563.0896,10828.7
2563.6721,10944.7
2564.2544,10953.7
2564.8367,10895.7
2565.4189,10925.7
2566.0010,10847.7
2566.5830,11010.7
2567.1648,10987.7
2567.7466,10963.7
2568.3281,10962.7
2568.9097,10913.7
2569.4912,10919.7
2570.0725,10946.7
2570.6536,10924.7
2571.2349,11009.7
2571.8157,11034.7
2572.3967,10938.7
2572.9775,11002.7
2573.5581,10966.7
2574.1387,10995.7
2574.7190,10987.7
2575.2996,11048.7
2575.8796,11119.7
2576.4597,11045.7
2577.0398,11077.7
2577.6199,11043.7
2578.1995,11041.7
2578.7793,11051.7
2579.3589,11128.7
2579.9382,11088.7
2580.5178,11097.7
2581.0969,11039.7
2581.6763,11155.7
2582.2551,11094.7
2582.8342,11120.7
2583.4131,11163.7
2583.9917,11111.7
2584.5703,11172.7
2585.1489,11118.7
2585.7273,11115.7
2586.3057,11155.7
2586.8838,11183.7
2587.4619,11136.7
2588.0398,11123.7
2588.6177,11147.7
2589.1956,11155.7
2589.7732,11203.7
2590.3508,11199.7
2590.9282,11162.7
2591.5056,11246.7
2592.0828,11218.7
2592.6599,11191.7
2593.2368,11274.7
2593.8137,11296.7
2594.3906,11258.7
2594.9673,11242.7
2595.5439,11283.7
2596.1204,11266.7
2596.6968,11318.7
2597.2729,11285.7
2597.8491,11316.7
2598.4253,11348.7
2599.0012,11253.7
2599.5771,11278.7
2600.1528,11325.7
2600.7285,11320.7
2601.3040,11350.7
2601.8794,11353.7
2602.4546,11320.7
2603.0298,11297.7
2603.6050,11401.7
2604.1799,11281.7
2604.7549,11382.7
2605.3296,11365.7
2605.9043,11375.7
2606.4788,11385.7
2607.0532,11403.7
2607.6277,11402.7
2608.2019,11487.7
2608.7761,11398.7
2609.3501,11365.7
2609.9241,11403.7
2610.4978,11451.7
2611.0715,11397.7
2611.6450,11472.7
2612.2185,11404.7
2612.7920,11392.7
2613.3652,11407.7
2613.9385,11470.7
2614.5115,11467.7
2615.0845,11488.7
2615.6575,11514.7
2616.2302,11466.7
2616.8027,11503.7
2617.3752,11488.7
2617.9478,11531.7
2618.5200,11569.7
2619.0923,11543.7
2619.6643,11541.7
2620.2363,11551.7
2620.8083,11469.7
2621.3801,11473.7
2621.9519,11718.7
2622.5234,11558.7
2623.0950,11672.7
2623.6663,11560.7
2624.2375,11541.7
2624.8086,11571.7
2625.3796,11645.7
2625.9507,11579.7
2626.5215,11592.7
2627.0923,11555.7
2627.6628,11511.7
2628.2334,11594.7
2628.8037,11556.7
2629.3740,11546.7
2629.9443,11606.7
2630.5144,11645.7
2631.0845,11607.7
2631.6543,11670.7
2632.2241,11589.7
2632.7937,11641.7
2633.3633,11645.7
2633.9329,11623.7
2634.5022,11584.7
2635.0715,11635.7
2635.6406,11611.7
2636.2097,11656.7
2636.7786,11688.7
2637.3474,11620.7
2637.9160,11631.7
2638.4849,11675.7
2639.0532,11728.7
2639.6216,11708.7
2640.1899,11691.7
2640.7583,11688.7
2641.3262,11700.7
2641.8943,11659.7
2642.4622,11642.7
2643.0300,11666.7
2643.5977,11724.7
2644.1653,11784.7
2644.7327,11660.7
2645.3000,11773.7
2645.8672,11701.7
2646.4343,11699.7
2647.0015,11679.7
2647.5684,11743.7
2648.1353,11808.7
2648.7019,11820.7
2649.2686,11714.7
2649.8350,11845.7
2650.4014,11748.7
2650.9678,11813.7
2651.5339,11821.7
2652.1001,11759.7
2652.6660,11729.7
2653.2319,11772.7
2653.7976,11848.7
2654.3633,11813.7
2654.9290,11698.7
2655.4944,11870.7
2656.0598,11657.7
2656.6250,11829.7
2657.1902,11786.7
2657.7551,11810.7
2658.3201,11839.7
2658.8850,11834.7
2659.4497,11759.7
2660.0144,11858.7
2660.5789,11901.7
2661.1433,11747.7
2661.7075,11873.7
2662.2717,11940.7
2662.8359,11920.7
2663.3999,11888.7
2663.9636,11917.7
2664.5276,11824.7
2665.0913,11903.7
2665.6548,11908.7
2666.2183,11961.7
2666.7815,11941.7
2667.3450,11862.7
2667.9080,11903.7
2668.4709,11996.7
2669.0339,11877.7
2669.5969,11893.7
2670.1597,11932.7
2670.7222,11894.7
2671.2847,11833.7
2671.8472,11959.7
2672.4094,11896.7
2672.9717,11952.7
2673.5339,11940.7
2674.0957,11849.7
2674.6577,11823.7
2675.2195,11925.7
2675.7813,11970.7
2676.3428,12013.7
2676.9043,11971.7
2677.4656,11924.7
2678.0269,11986.7
2678.5881,11943.7
2679.1492,11934.7
2679.7102,11891.7
2680.2710,12012.7
2680.8318,11876.7
2681.3923,11958.7
2681.9529,11931.7
2682.5134,11856.7
2683.0737,12001.7
2683.6340,12033.7
2684.1941,12006.7
2684.7542,11903.7
2685.3140,11958.7
2685.8738,11938.7
2686.4336,11913.7
2686.9932,12081.7
2687.5527,11940.7
2688.1121,11988.7
2688.6714,12029.7
2689.2305,11954.7
2689.7896,11982.7
2690.3486,12136.7
2690.9075,11952.7
2691.4663,11986.7
2692.0249,12049.7
2692.5835,12060.7
2693.1421,12062.7
2693.7004,12019.7
2694.2585,11994.7
2694.8167,12053.7
2695.3748,12090.7
2695.9329,12003.7
2696.4905,12085.7
2697.0483,12123.7
2697.6060,12017.7
2698.1636,12074.7
2698.7209,12090.7
2699.2783,12008.7
2699.8354,12071.7
2700.3926,12091.7
2700.9495,12045.7
2701.5066,12143.7
2702.0632,12079.7
2702.6201,12075.7
2703.1765,12119.7
2703.7332,12109.7
2704.2896,12077.7
2704.8457,12072.7
2705.4019,12109.7
2705.9580,12013.7
2706.5139,12071.7
2707.0698,12131.7
2707.6257,12016.7
2708.1814,12112.7
2708.7368,12205.7
2709.2922,12125.7
2709.8477,12233.7
2710.4028,12166.7
2710.9580,12042.7
2711.5132,12168.7
2712.0681,12295.7
2712.6230,12067.7
2713.1777,12211.7
2713.7324,12070.7
2714.2869,12021.7
2714.8413,12135.7
2715.3955,12158.7
2715.9497,12088.7
2716.5039,12287.7
2717.0579,12117.7
2717.6118,12094.7
2718.1658,12104.7
2718.7195,12146.7
2719.2729,12122.7
2719.8264,12213.7
2720.3799,12227.7
2720.9331,12148.7
2721.4863,12123.7
2722.0396,12156.7
2722.5925,12165.7
2723.1453,12227.7
2723.6980,12299.7
2724.2507,12134.7
2724.8032,12239.7
2725.3557,12232.7
2725.9082,12112.7
2726.4604,12226.7
2727.0127,12288.7
2727.5647,12155.7
2728.1167,12247.7
2728.6685,12224.7
2729.2202,12131.7
2729.7720,12239.7
2730.3235,12156.7
2730.8748,12159.7
2731.4263,12286.7
2731.9775,12170.7
2732.5286,12167.7
2733.0796,12191.7
2733.6306,12315.7
2734.1814,12157.7
2734.7322,12349.7
2735.2827,12235.7
2735.8333,12069.7
2736.3835,12182.7
2736.9338,12213.7
2737.4841,12240.7
2738.0342,12226.7
2738.5842,12292.7
2739.1343,12130.7
2739.6841,12232.7
2740.2336,12234.7
2740.7832,12171.7
2741.3328,12263.7
2741.8821,12238.7
2742.4314,12198.7
2742.9807,12169.7
2743.5298,12164.7
2744.0786,12186.7
2744.6277,12218.7
2745.1763,12211.7
2745.7251,12108.7
2746.2737,12198.7
2746.8220,12279.7
2747.3704,12104.7
2747.9187,12263.7
2748.4668,12321.7
2749.0149,12187.7
2749.5630,12225.7
2750.1108,12245.7
2750.6584,12112.7
2751.2063,12234.7
2751.7537,12373.7
2752.3013,12240.7
2752.8486,12288.7
2753.3958,12362.7
2753.9429,12189.7
2754.4900,12111.7
2755.0369,12320.7
2755.5837,12193.7
2756.1306,12203.7
2756.6772,12336.7
2757.2236,12132.7
2757.7700,12121.7
2758.3164,12273.7
2758.8625,12168.7
2759.4087,12182.7
2759.9548,12237.7
2760.5007,12150.7
2761.0466,12162.7
2761.5923,12282.7
2762.1379,12210.7
2762.6833,12231.7
2763.2288,12289.7
2763.7742,12173.7
2764.3193,12125.7
2764.8645,12291.7
2765.4094,12249.7
2765.9543,12249.7
2766.4993,12323.7
2767.0439,12318.7
2767.5884,12118.7
2768.1331,12322.7
2768.6775,12184.7
2769.2217,12168.7
2769.7659,12299.7
2770.3101,12338.7
2770.8540,12184.7
2771.3979,12279.7
2771.9417,12209.7
2772.4854,12148.7
2773.0291,12237.7
2773.5725,12271.7
2774.1157,12090.7
2774.6592,12381.7
2775.2024,12170.7
2775.7454,12153.7
2776.2883,12221.7
2776.8313,12300.7
2777.3740,12202.7
2777.9167,12316.7
2778.4592,12298.7
2779.0017,12213.7
2779.5442,12211.7
2780.0864,12221.7
2780.6284,12210.7
2781.1707,12329.7
2781.7126,12299.7
2782.2544,12243.7
2782.7961,12302.7
2783.3379,12373.7
2783.8794,12203.7
2784.4209,12237.7
2784.9622,12393.7
2785.5034,12168.7
2786.0447,12264.7
2786.5857,12298.7
2787.1267,12257.7
2787.6675,12272.7
2788.2083,12293.7
2788.7490,12297.7
2789.2896,12217.7
2789.8301,12308.7
2790.3704,12204.7
2790.9106,12202.7
2791.4507,12320.7
2791.9907,12276.7
2792.5308,12229.7
2793.0706,12337.7
2793.6104,12283.7
2794.1499,12165.7
2794.6895,12384.7
2795.2290,12336.7
2795.7683,12265.7
2796.3076,12379.7
2796.8467,12194.7
2797.3857,12259.7
2797.9248,12337.7
2798.4636,12362.7
2799.0022,12259.7
2799.5410,12389.7
2800.0793,12393.7
2800.6179,12195.7
2801.1563,12352.7
2801.6946,12396.7
2802.2327,12230.7
2802.7708,12398.7
2803.3086,12417.7
2803.8464,12268.7
2804.3843,12381.7
2804.9219,12433.7
2805.4592,12289.7
2805.9968,12368.7
2806.5342,12447.7
2807.0713,12353.7
2807.6084,12407.7
2808.1455,12436.7
2808.6824,12295.7
2809.2192,12411.7
2809.7561,12469.7
2810.2927,12401.7
2810.8291,12349.7
2811.3657,12491.7
2811.9019,12356.7
2812.4382,12429.7
2812.9744,12552.7
2813.5103,12401.7
2814.0464,12352.7
2814.5820,12595.7
2815.1179,12437.7
2815.6536,12343.7
2816.1890,12533.7
2816.7244,12524.7
2817.2598,12356.7
2817.7949,12544.7
2818.3301,12485.7
2818.8652,12363.7
2819.4001,12493.7
2819.9351,12578.7
2820.4697,12386.7
2821.0044,12582.7
2821.5388,12531.7
2822.0732,12438.7
2822.6077,12534.7
2823.1418,12633.7
2823.6760,12467.7
2824.2100,12606.7
2824.7439,12645.7
2825.2778,12553.7
2825.8115,12493.7
2826.3452,12630.7
2826.8787,12593.7
2827.4121,12566.7
2827.9456,12677.7
2828.4788,12619.7
2829.0120,12470.7
2829.5449,12772.7
2830.0779,12478.7
2830.6106,12511.7
2831.1433,12696.7
2831.6760,12665.7
2832.2085,12625.7
2832.7410,12753.7
2833.2734,12622.7
2833.8057,12509.7
2834.3376,12752.7
2834.8699,12709.7
2835.4019,12596.7
2835.9336,12681.7
2836.4653,12723.7
2836.9971,12574.7
2837.5286,12765.7
2838.0601,12739.7
2838.5913,12635.7
2839.1226,12657.7
2839.6538,12761.7
2840.1848,12663.7
2840.7158,12545.7
2841.2466,12821.7
2841.7773,12651.7
2842.3079,12828.7
2842.8386,12831.7
2843.3689,12670.7
2843.8994,12662.7
2844.4297,12760.7
2844.9597,12759.7
2845.4897,12823.7
2846.0198,12898.7
2846.5496,12779.7
2847.0793,12670.7
2847.6091,12846.7
2848.1387,12781.7
2848.6680,12879.2
2849.1975,12976.7
2849.7266,12915.7
2850.2559,12790.7
2850.7849,12927.7
2851.3140,12861.7
2851.8428,12760.7
2852.3716,12898.7
2852.9001,12936.7
2853.4287,12808.7
2853.9573,12893.7
2854.4856,12937.7
2855.0139,12819.7
2855.5420,13019.7
2856.0701,13032.7
2856.5981,12872.7
2857.1260,12924.7
2857.6538,12984.7
2858.1814,12862.7
2858.7090,12800.7
2859.2366,12991.7
2859.7639,12855.7
2860.2913,12878.7
2860.8184,12905.7
2861.3455,12899.7
2861.8726,12906.7
2862.3994,12941.7
2862.9260,12939.7
2863.4529,12868.7
2863.9795,13022.7
2864.5059,13088.7
2865.0322,12906.7
2865.5586,13022.7
2866.0850,13134.7
2866.6108,12930.7
2867.1370,13062.7
2867.6628,13157.7
2868.1887,12834.7
2868.7144,13012.7
2869.2400,13166.7
2869.7656,13032.7
2870.2910,12952.7
2870.8162,13143.7
2871.3416,12964.7
2871.8667,13049.7
2872.3916,13137.7
2872.9165,13111.7
2873.4414,12973.7
2873.9661,13228.7
2874.4907,13129.7
2875.0151,12999.7
2875.5398,13214.7
2876.0640,13167.7
2876.5881,12988.7
2877.1123,13158.7
2877.6365,13243.7
2878.1604,13068.7
2878.6843,13141.7
2879.2080,13275.7
2879.7317,13023.7
2880.2551,13166.7
2880.7786,13328.7
2881.3020,13140.7
2881.8252,13167.7
2882.3484,13227.7
2882.8713,13147.7
2883.3943,13093.7
2883.9172,13266.7
2884.4399,13204.7
2884.9626,13053.7
2885.4854,13315.7
2886.0078,13229.7
2886.5300,13058.7
2887.0525,13221.7
2887.5745,13266.7
2888.0967,13113.7
2888.6187,13247.7
2889.1406,13339.7
2889.6624,13216.7
2890.1841,13204.7
2890.7056,13415.7
2891.2271,13115.7
2891.7485,13282.7
2892.2698,13453.7
2892.7910,13314.7
2893.3120,13165.7
2893.8330,13375.7
2894.3540,13325.7
2894.8748,13224.7
2895.3955,13436.7
2895.9160,13318.7
2896.4368,13217.7
2896.9570,13424.7
2897.4773,13403.7
2897.9976,13200.7
2898.5178,13423.7
2899.0378,13461.7
2899.5576,13382.7
2900.0776,13345.7
2900.5972,13519.7
2901.1169,13210.7
2901.6365,13307.7
2902.1560,13529.7
2902.6753,13313.7
2903.1946,13298.7
2903.7136,13523.7
2904.2327,13386.7
2904.7517,13280.7
2905.2705,13473.7
2905.7893,13607.7
2906.3079,13324.7
2906.8264,13568.7
2907.3450,13581.7
2907.8633,13273.7
2908.3816,13420.7
2908.8999,13591.7
2909.4180,13398.7
2909.9358,13459.7
2910.4539,13704.7
2910.9717,13436.7
2911.4893,13455.7
2912.0068,13550.7
2912.5244,13491.7
2913.0417,13408.7
2913.5591,13626.7
2914.0764,13542.7
2914.5935,13606.7
2915.1104,13670.7
2915.6274,13648.7
2916.1443,13452.7
2916.6609,13612.7
2917.1775,13755.7
2917.6941,13510.7
2918.2104,13608.7
2918.7268,13735.7
2919.2432,13499.7
2919.7593,13548.7
2920.2751,13814.7
2920.7913,13693.7
2921.3071,13588.7
2921.8228,13744.7
2922.3384,13712.7
2922.8540,13500.7
2923.3694,13648.7
2923.8848,13762.7
2924.4001,13581.7
2924.9153,13736.7
2925.4304,13800.7
2925.9453,13522.7
2926.4602,13730.7
2926.9751,13876.7
2927.4897,13559.7
2928.0044,13744.7
2928.5188,13909.7
2929.0332,13739.7
2929.5476,13631.7
2930.0618,13813.7
2930.5759,13818.7
2931.0898,13607.7
2931.6038,13822.7
2932.1177,13926.7
2932.6313,13639.7
2933.1450,13806.7
2933.6584,13928.7
2934.1719,13720.7
2934.6853,13870.7
2935.1985,14011.7
2935.7117,13818.7
2936.2249,13785.7
2936.7378,13888.7
2937.2505,13847.7
2937.7634,13812.7
2938.2759,14082.7
2938.7886,14007.7
2939.3010,13826.7
2939.8135,13967.7
2940.3257,14073.7
2940.8379,13822.7
2941.3499,13937.7
2941.8621,14129.7
2942.3738,13963.7
2942.8857,13942.7
2943.3975,14047.7
2943.9089,13933.7
2944.4204,13912.7
2944.9319,14122.7
2945.4431,14034.7
2945.9543,14039.7
2946.4656,14131.7
2946.9766,14089.7
2947.4875,13892.7
2947.9983,14068.7
2948.5090,14217.7
2949.0198,14009.7
2949.5303,14075.7
2950.0408,14287.7
2950.5510,14091.7
2951.0613,14083.7
2951.5715,14322.7
2952.0815,14095.7
2952.5916,14061.7
2953.1016,14314.7
2953.6113,14191.7
2954.1208,14016.7
2954.6306,14209.7
2955.1401,14347.7
2955.6494,14076.7
2956.1587,14264.7
2956.6680,14333.7
2957.1770,14137.7
2957.6860,14183.7
2958.1951,14401.7
2958.7039,14278.7
2959.2126,14186.7
2959.7212,14442.7
2960.2297,14313.7
2960.7383,14228.7
2961.2466,14421.7
2961.7549,14303.7
2962.2629,14086.7
2962.7710,14386.7
2963.2791,14394.7
2963.7869,14322.7
2964.2947,14376.7
2964.8022,14481.7
2965.3098,14229.7
2965.8174,14401.7
2966.3247,14573.7
2966.8320,14432.7
2967.3394,14297.7
2967.8464,14514.7
2968.3535,14476.7
2968.8604,14275.7
2969.3672,14550.7
2969.8738,14531.7
2970.3804,14431.7
2970.8870,14517.7
2971.3936,14592.7
2971.8999,14448.7
2972.4060,14353.7
2972.9121,14606.7
2973.4182,14478.7
2973.9243,14451.7
2974.4302,14645.7
2974.9358,14600.7
2975.4417,14535.7
2975.9470,14541.7
2976.4526,14655.7
2976.9580,14460.7
2977.4634,14619.7
2977.9685,14748.7
2978.4736,14533.7
2978.9785,14593.7
2979.4836,14739.7
2979.9883,14567.7
2980.4932,14535.7
2980.9978,14688.7
2981.5022,14684.7
2982.0066,14526.7
2982.5110,14718.7
2983.0154,14664.7
2983.5195,14543.7
2984.0234,14587.7
2984.5276,14837.7
2985.0313,14566.7
2985.5352,14792.7
2986.0388,14798.7
2986.5425,14693.7
2987.0459,14790.2
2987.5493,14886.7
2988.0525,14870.7
2988.5559,14704.7
2989.0588,14848.7
2989.5620,14897.7
2990.0649,14704.7
2990.5676,14780.7
2991.0703,15002.7
2991.5730,14814.7
2992.0757,14846.7
2992.5781,15010.7
2993.0803,14889.7
2993.5828,14764.7
2994.0850,14938.7
2994.5869,14895.7
2995.0889,14899.7
2995.5908,14909.7
2996.0925,15132.7
2996.5942,14902.7
2997.0959,14859.7
2997.5974,15083.7
2998.0989,14926.7
2998.6001,14963.7
2999.1013,15158.7
2999.6025,15093.7
3000.1035,14872.7
3000.6045,15157.7
3001.1052,15049.7
3001.6060,14888.7
3002.1067,15177.7
3002.6072,15042.7
3003.1077,14932.7
3003.6082,15110.7
3004.1084,15162.7
3004.6084,15061.7
3005.1086,15006.7
3005.6086,15166.7
3006.1084,15143.7
3006.6084,15054.7
3007.1079,15199.7
3007.6077,15125.7
3008.1072,14918.7
3008.6064,15196.7
3009.1060,15294.7
3009.6052,15096.7
3010.1042,15270.2
3010.6033,15443.7
3011.1023,15255.7
3011.6011,15150.7
3012.0999,15268.7
3012.5986,15325.7
3013.0972,15139.7
3013.5957,15373.7
3014.0940,15413.7
3014.5923,15214.7
3015.0906,15248.7
3015.5886,15459.7
3016.0867,15334.7
3016.5847,15259.7
3017.0825,15563.7
3017.5801,15387.7
3018.0779,15180.7
3018.5754,15395.7
3019.0728,15379.7
3019.5701,15240.7
3020.0674,15474.7
3020.5647,15628.7
3021.0618,15327.7
3021.5586,15326.7
3022.0557,15626.7
3022.5525,15496.7
3023.0491,15556.7
3023.5457,15616.7
3024.0422,15660.7
3024.5386,15416.7
3025.0349,15608.7
3025.5313,15722.7
3026.0273,15492.7
3026.5234,15485.7
3027.0193,15767.7
3027.5151,15510.7
3028.0110,15521.7
3028.5066,15774.7
3029.0022,15692.7
3029.4978,15727.2
3029.9932,15761.7
3030.4883,15796.7
3030.9836,15679.7
3031.4788,15676.7
3031.9736,15908.7
3032.4688,15636.7
3032.9634,15693.7
3033.4583,15870.7
3033.9529,15842.7
3034.4475,15660.7
3034.9419,15979.7
3035.4363,15952.7
3035.9304,15716.7
3036.4246,15878.7
3036.9187,15957.7
3037.4128,15760.7
3037.9067,15875.7
3038.4004,16142.7
3038.8940,15998.7
3039.3877,15806.7
3039.8813,16077.7
3040.3748,16117.7
3040.8682,15851.7
3041.3613,16132.7
3041.8545,16160.7
3042.3474,16006.7
3042.8406,16039.7
3043.3333,16289.7
3043.8262,16171.7
3044.3188,16054.7
3044.8115,16314.7
3045.3040,16281.7
3045.7964,16102.7
3046.2886,16323.7
3046.7808,16443.7
3047.2729,16192.7
3047.7649,16229.7
3048.2568,16516.7
3048.7488,16317.7
3049.2405,16286.7
3049.7322,16525.7
3050.2239,16522.7
3050.7153,16252.7
3051.2065,16459.7
3051.6980,16662.7
3052.1892,16457.7
3052.6802,16554.7
3053.1711,16767.7
3053.6621,16611.7
3054.1531,16451.7
3054.6438,16716.7
3055.1343,16740.7
3055.6250,16652.7
3055.7969,16837.5
3056.3438,16869.5
3056.8906,16856.5
3057.4370,16913.5
3057.9836,16918.5
3058.5300,16987.5
3059.0764,16881.5
3059.6226,16899.5
3060.1687,17080.5
3060.7146,17045.5
3061.2605,17096.5
3061.8062,17099.5
3062.3521,17022.5
3062.8975,17191.5
3063.4431,17156.5
3063.9883,17188.5
3064.5337,17252.5
3065.0789,17338.5
3065.6238,17268.5
3066.1689,17267.5
3066.7136,17389.5
3067.2585,17369.5
3067.8030,17375.5
3068.3477,17449.5
3068.8921,17541.5
3069.4365,17549.5
3069.9807,17570.5
3070.5249,17636.5
3071.0688,17589.5
3071.6128,17738.5
3072.1567,17753.5
3072.7004,17618.5
3073.2439,17907.5
3073.7876,17760.5
3074.3311,17808.5
3074.8743,17919.5
3075.4175,17846.5
3075.9607,17964.5
3076.5037,18156.5
3077.0466,18026.5
3077.5894,18130.5
3078.1321,18157.5
3078.6746,18210.5
3079.2170,18154.5
3079.7595,18348.5
3080.3018,18456.5
3080.8440,18358.5
3081.3862,18434.5
3081.9280,18502.5
3082.4700,18503.5
3083.0117,18594.5
3083.5535,18646.5
3084.0950,18636.5
3084.6365,18552.5
3085.1780,18803.5
3085.7192,18768.5
3086.2603,18883.5
3086.8015,19043.5
3087.3423,18979.5
3087.8833,19082.5
3088.4241,19138.5
3088.9646,19140.5
3089.5051,19114.5
3090.0457,19265.5
3090.5859,19403.5
3091.1262,19439.5
3091.6665,19437.5
3092.2065,19569.5
3092.7463,19558.5
3093.2864,19620.5
3093.8259,19770.5
3094.3657,19800.5
3094.9053,19897.5
3095.4446,20035.5
3095.9839,19982.5
3096.5232,20034.5
3097.0623,20271.5
3097.6013,20309.5
3098.1404,20445.5
3098.6792,20475.5
3099.2178,20458.5
3099.7566,20571.5
3100.2949,20643.5
3100.8335,20686.5
3101.3718,20821.5
3101.9099,20844.5
3102.4480,21010.5
3102.9861,21093.5
3103.5242,21109.5
3104.0618,21170.5
3104.5996,21182.5
3105.1372,21361.5
3105.6748,21394.5
3106.2122,21526.5
3106.7495,21577.5
3107.2866,21588.5
3107.8237,21710.5
3108.3606,21815.5
3108.8977,21938.5
3109.4343,21918.5
3109.9712,22223.5
3110.5078,22183.5
3111.0442,22145.5
3111.5806,22303.5
3112.1169,22350.5
3112.6531,22474.5
3113.1892,22556.5
3113.7251,22595.5
3114.2610,22681.5
3114.7969,22775.5
3115.3325,22840.5
3115.8682,22891.5
3116.4036,23041.5
3116.9390,23140.5
3117.4741,23186.5
3118.0095,23142.5
3118.5444,23293.5
3119.0796,23380.5
3119.6143,23345.5
3120.1492,23534.5
3120.6838,23522.5
3121.2183,23541.5
3121.7529,23713.5
3122.2871,23658.5
3122.8215,23637.5
3123.3557,23973.5
3123.8896,23803.5
3124.4236,23886.5
3124.9575,23992.5
3125.4912,23848.5
3126.0249,24004.5
3126.5586,24094.5
3127.0920,24035.5
3127.6255,24118.5
3128.1587,24132.5
3128.6919,24305.5
3129.2249,24210.5
3129.7578,24267.5
3130.2908,24295.5
3130.8235,24387.5
3131.3562,24376.5
3131.8887,24443.5
3132.4211,24373.5
3132.9534,24308.5
3133.4856,24289.5
3134.0178,24411.5
3134.5498,24315.5
3135.0818,24295.5
3135.6138,24440.5
3136.1455,24432.5
3136.6772,24260.5
3137.2087,24331.5
3137.7402,24296.5
3138.2715,24335.5
3138.8027,24385.5
3139.3340,24329.5
3139.8650,24099.5
3140.3960,24143.5
3140.9268,24250.5
3141.4575,24135.5
3141.9880,24225.5
3142.5186,24298.5
3143.0491,24124.5
3143.5793,24146.5
3144.1096,24100.5
3144.6399,23993.5
3145.1699,23995.5
3145.7000,24076.5
3146.2297,23962.5
3146.7595,23863.5
3147.2891,23895.5
3147.8186,23852.5
3148.3481,23759.5
3148.8774,23905.5
3149.4067,23794.5
3149.9358,23713.5
3150.4648,23689.5
3150.9939,23606.5
3151.5227,23362.5
3152.0513,23424.5
3152.5801,23472.5
3153.1086,23425.5
3153.6370,23383.5
3154.1653,23170.5
3154.6936,23192.5
3155.2217,23085.5
3155.7498,23143.5
3156.2778,23101.5
3156.8057,22940.5
3157.3333,23103.5
3157.8611,23023.5
3158.3884,22827.5
3158.9160,22771.5
3159.4434,22651.5
3159.9705,22707.5
3160.4978,22697.5
3161.0247,22549.5
3161.5518,22537.5
3162.0786,22599.5
3162.6052,22416.5
3163.1318,22395.5
3163.6584,22442.5
3164.1851,22343.5
3164.7112,22121.5
3165.2375,22195.5
3165.7637,22227.5
3166.2898,22101.5
3166.8157,21970.5
3167.3416,22012.5
3167.8672,22013.5
3168.3931,21830.5
3168.9185,21886.5
3169.4438,21817.5
3169.9692,21689.5
3170.4946,21649.5
3171.0198,21706.5
3171.5447,21574.5
3172.0698,21670.5
3172.5945,21565.5
3173.1194,21487.5
3173.6440,21516.5
3174.1685,21423.5
3174.6931,21327.5
3175.2173,21298.5
3175.7417,21429.5
3176.2659,21164.5
3176.7898,21163.5
3177.3137,21294.5
3177.8376,21149.5
3178.3616,21078.5
3178.8853,21091.5
3179.4087,21035.5
3179.9321,21031.5
3180.4556,21001.5
3180.9788,21032.5
3181.5020,20937.5
3182.0251,20942.5
3182.5481,20909.5
3183.0708,20903.5
3183.5938,20834.5
3184.1165,20857.5
3184.6389,20744.5
3185.1614,20714.5
3185.6838,20796.5
3186.2061,20692.5
3186.7283,20632.5
3187.2502,20666.5
3187.7722,20572.5
3188.2942,20683.5
3188.8159,20578.5
3189.3376,20606.5
3189.8591,20492.5
3190.3806,20473.5
3190.9021,20520.5
3191.4233,20464.5
3191.9446,20464.5
3192.4656,20482.5
3192.9866,20416.5
3193.5076,20406.5
3194.0283,20375.5
3194.5491,20372.5
3195.0696,20358.5
3195.5901,20271.5
3196.1106,20362.5
3196.6309,20287.5
3197.1511,20280.5
3197.6711,20233.5
3198.1912,20230.5
3198.7112,20160.5
3199.2310,20255.5
3199.7507,20117.5
3200.2703,20270.5
3200.7898,20178.5
3201.3091,20084.5
3201.8286,19973.5
3202.3477,20071.5
3202.8669,20029.5
3203.3860,20111.5
3203.9048,20095.5
3204.4236,20091.5
3204.9424,20003.5
3205.4609,20137.5
3205.9795,20123.5
3206.4980,20006.5
3207.0164,20044.5
3207.5344,20174.5
3208.0527,19952.5
3208.5708,19974.5
3209.0886,20044.5
3209.6064,19988.5
3210.1243,20070.5
3210.6418,20093.5
3211.1594,19947.5
3211.6770,19872.5
3212.1943,19811.5
3212.7114,20030.5
3213.2288,19877.5
3213.7456,19957.5
3214.2627,19865.5
3214.7795,19912.5
3215.2964,19938.5
3215.8130,19922.5
3216.3296,19815.5
3216.8459,19694.5
3217.3623,19899.5
3217.8787,19831.5
3218.3948,19846.5
3218.9109,19922.5
3219.4270,19803.5
3219.9429,19718.5
3220.4585,19854.5
3220.9741,19782.5
3221.4897,19959.5
3222.0054,19793.5
3222.5208,19779.5
3223.0361,19918.5
3223.5513,19728.5
3224.0664,19706.5
3224.5813,19797.5
3225.0962,19777.5
3225.6111,19880.5
3226.1257,19904.5
3226.6404,19695.5
3227.1548,19850.5
3227.6692,19796.5
3228.1836,19745.5
3228.6978,19796.5
3229.2119,19816.5
3229.7261,19849.5
3230.2400,19808.5
3230.7537,19834.5
3231.2676,19780.5
3231.7810,19799.5
3232.2947,19805.5
3232.8081,19809.5
3233.3215,19838.5
3233.8347,19738.5
3234.3479,19866.5
3234.8608,19748.5
3235.3738,19808.5
3235.8867,19727.5
3236.3994,19867.5
3236.9121,19777.5
3237.4246,19763.5
3237.9373,19700.5
3238.4495,19757.5
3238.9617,19754.5
3239.4739,19702.5
3239.9861,19816.5
3240.4980,19752.5
3241.0100,19771.5
3241.5217,19756.5
3242.0334,19756.5
3242.5449,19736.5
3243.0564,19795.5
3243.5679,19805.5
3244.0791,19820.5
3244.5903,19774.5
3245.1016,19740.5
3245.6125,19789.5
3246.1233,19741.5
3246.6343,19712.5
3247.1450,19836.5
3247.6555,19870.5
3248.1660,19786.5
3248.6765,19724.5
3249.1868,19713.5
3249.6970,19746.5
3250.2073,19710.5
3250.7173,19891.5
3251.2273,19715.5
3251.7371,19720.5
3252.2468,19673.5
3252.7563,19641.5
3253.2659,19787.5
3253.7754,19776.5
3254.2849,19816.5
3254.7939,19710.5
3255.3032,19727.5
3255.8123,19713.5
3256.3213,19748.5
3256.8301,19781.5
3257.3389,19875.5
3257.8477,19731.5
3258.3562,19804.5
3258.8647,19805.5
3259.3730,19767.5
3259.8813,19758.5
3260.3896,19780.5
3260.8977,19670.5
3261.4058,19893.5
3261.9136,19821.5
3262.4214,19758.5
3262.9292,19757.5
3263.4368,19768.5
3263.9443,19699.5
3264.4517,19766.5
3264.9590,19709.5
3265.4663,19769.5
3265.9734,19776.5
3266.4805,19763.5
3266.9873,19733.5
3267.4941,19747.5
3268.0010,19735.5
3268.5076,19814.5
3269.0142,19846.5
3269.5208,19725.5
3270.0271,19764.5
3270.5334,19777.5
3271.0396,19861.5
3271.5457,19770.5
3272.0515,19775.5
3272.5574,19952.5
3273.0632,19731.5
3273.5688,19864.5
3274.0745,19779.5
3274.5801,19812.5
3275.0854,19729.5
3275.5908,19768.5
3276.0959,19885.5
3276.6011,19842.5
3277.1062,19751.5
3277.6111,19679.5
3278.1160,19783.5
3278.6206,19796.5
3279.1252,19824.5
3279.6299,19805.5
3280.1343,19862.5
3280.6387,19868.5
3281.1428,19770.5
3281.6470,19798.5
3282.1511,19751.5
3282.6550,19814.5
3283.1589,19902.5
3283.6626,19685.5
3284.1663,19796.5
3284.6699,19749.5
3285.1733,19818.5
3285.6768,19731.5
3286.1799,19833.5
3286.6833,19708.5
3287.1863,19912.5
3287.6895,19746.5
3288.1924,19727.5
3288.6951,19812.5
3289.1978,19813.5
3289.7004,19674.5
3290.2029,19839.5
3290.7053,19806.5
3291.2078,19762.5
3291.7100,19821.5
3292.2122,19829.5
3292.7141,19731.5
3293.2161,19889.5
3293.7180,19892.5
3294.2197,19793.5
3294.7214,19782.5
3295.2229,19856.5
3295.7244,19897.5
3296.2258,19842.5
3296.7271,19849.5
3297.2283,19860.5
3297.7295,19874.5
3298.2305,19983.5
3298.7312,19861.5
3299.2322,19894.5
3299.7329,19969.5
3300.2334,19775.5
3300.7339,19868.5
3301.2344,19905.5
3301.7346,19972.5
3302.2349,19897.5
3302.7351,19835.5
3303.2351,19870.5
3303.7351,19849.5
3304.2349,19825.5
3304.7346,19994.5
3305.2344,19947.5
3305.7339,20023.5
3306.2334,19911.5
3306.7327,19947.5
3307.2319,19962.5
3307.7312,19813.5
3308.2302,19963.5
3308.7292,20020.5
3309.2283,19944.5
3309.7271,19896.5
3310.2258,19925.5
3310.7244,19960.5
3311.2229,20036.5
3311.7212,20006.5
3312.2197,19948.5
3312.7178,20034.5
3313.2161,20076.5
3313.7141,20022.5
3314.2119,20028.5
3314.7100,19954.5
3315.2075,20067.5
3315.7053,20109.5
3316.2029,20063.5
3316.7004,20121.5
3317.1978,19967.5
3317.6951,19898.5
3318.1921,20084.5
3318.6892,20059.5
3319.1863,20007.5
3319.6831,20124.5
3320.1799,20092.5
3320.6768,19987.5
3321.1733,19965.5
3321.6699,20101.5
3322.1663,20137.5
3322.6626,20034.5
3323.1589,20098.5
3323.6550,20161.5
3324.1511,20117.5
3324.6470,20187.5
3325.1428,20138.5
3325.6387,20081.5
3326.1343,20055.5
3326.6299,20181.5
3327.1255,20137.5
3327.6208,20146.5
3328.1162,20227.5
3328.6113,20202.5
3329.1064,20114.5
3329.6016,20207.5
3330.0964,20185.5
3330.5913,20143.5
3331.0859,20196.5
3331.5806,20195.5
3332.0752,20138.5
3332.5696,20218.5
3333.0640,20186.5
3333.5581,20364.5
3334.0522,20207.5
3334.5464,20193.5
3335.0403,20291.5
3335.5342,20181.5
3336.0281,20216.5
3336.5217,20409.5
3337.0154,20382.5
3337.5088,20290.5
3338.0022,20358.5
3338.4956,20257.5
3338.9888,20271.5
3339.4819,20214.5
3339.9749,20398.5
3340.4678,20398.5
3340.9607,20284.5
3341.4534,20344.5
3341.9460,20485.5
3342.4387,20372.5
3342.9312,20317.5
3343.4236,20352.5
3343.9158,20439.5
3344.4080,20414.5
3344.9001,20535.5
3345.3921,20425.5
3345.8840,20283.5
3346.3757,20405.5
3346.8674,20435.5
3347.3591,20485.5
3347.8506,20262.5
3348.3420,20483.5
3348.8335,20485.5
3349.3247,20449.5
3349.8159,20505.5
3350.3069,20573.5
3350.7979,20313.5
3351.2888,20503.5
3351.7795,20644.5
3352.2703,20480.5
3352.7607,20539.5
3353.2512,20576.5
3353.7417,20561.5
3354.2319,20437.5
3354.7222,20610.5
3355.2124,20574.5
3355.7024,20533.5
3356.1924,20587.5
3356.6821,20579.5
3357.1719,20498.5
3357.6616,20433.5
3358.1511,20654.5
3358.6406,20697.5
3359.1299,20541.5
3359.6191,20652.5
3360.1084,20647.5
3360.5974,20650.5
3361.0864,20606.5
3361.5754,20639.5
3362.0642,20631.5
3362.5530,20614.5
3363.0415,20752.5
3363.5300,20730.5
3364.0186,20725.5
3364.5068,20705.5
3364.9951,20706.5
3365.4832,20608.5
3365.9712,20671.5
3366.4592,20749.5
3366.9473,20707.5
3367.4348,20713.5
3367.9226,20736.5
3368.4102,20694.5
3368.8977,20791.5
3369.3850,20756.5
3369.8726,20876.5
3370.3596,20841.5
3370.8467,20786.5
3371.3337,20973.5
3371.8208,20874.5
3372.3076,20815.5
3372.7944,20675.5
3373.2810,20808.5
3373.7676,20802.5
3374.2542,20782.5
3374.7405,20940.5
3375.2268,20881.5
3375.7129,20866.5
3376.1990,20885.5
3376.6851,20917.5
3377.1709,20793.5
3377.6567,20996.5
3378.1426,20955.5
3378.6282,20962.5
3379.1138,20836.5
3379.5991,20959.5
3380.0845,21023.5
3380.5698,20934.5
3381.0549,20999.5
3381.5400,20948.5
3382.0251,20968.5
3382.5100,20889.5
3382.9949,20892.5
3383.4795,21042.5
3383.9641,20938.5
3384.4487,21143.5
3384.9331,21076.5
3385.4175,20973.5
3385.9016,20883.5
3386.3857,21041.5
3386.8699,20926.5
3387.3538,20996.5
3387.8376,21094.5
3388.3215,21128.5
3388.8052,21010.5
3389.2888,21031.5
3389.7722,21141.5
3390.2556,21053.5
3390.7390,20896.5
3391.2222,21163.5
3391.7053,21205.5
3392.1885,21068.5
3392.6714,21081.5
3393.1543,21097.5
3393.6370,21079.5
3394.1196,21014.5
3394.6023,21268.5
3395.0847,21069.5
3395.5671,21095.5
3396.0493,21171.5
3396.5315,21203.5
3397.0137,21094.5
3397.4956,21137.5
3397.9775,21243.5
3398.4595,21191.5
3398.9412,21149.5
3399.4229,21197.5
3399.9045,21335.5
3400.3860,21101.5
3400.8672,21239.5
3401.3486,21360.5
3401.8298,21136.5
3402.3108,21166.5
3402.7920,21305.5
3403.2727,21272.5
3403.7537,21124.5
3404.2344,21283.5
3404.7151,21467.5
3405.1956,21293.5
3405.6760,21144.5
3406.1563,21435.5
3406.6367,21416.5
3407.1167,21248.5
3407.5969,21360.5
3408.0769,21448.5
3408.5569,21276.5
3409.0366,21253.5
3409.5164,21457.5
3409.9958,21316.5
3410.4753,21187.5
3410.9548,21315.5
3411.4343,21355.5
3411.9136,21402.5
3412.3926,21422.5
3412.8718,21489.5
3413.3508,21339.5
3413.8296,21258.5
3414.3083,21310.5
3414.7871,21498.5
3415.2656,21288.5
3415.7441,21392.5
3416.2227,21434.5
3416.7009,21486.5
3417.1792,21306.5
3417.6575,21533.5
3418.1355,21536.5
3418.6135,21322.5
3419.0913,21364.5
3419.5691,21534.5
3420.0469,21472.5
3420.5244,21463.5
3421.0020,21555.5
3421.4792,21645.5
3421.9565,21401.5
3422.4338,21605.5
3422.9111,21611.5
3423.3882,21459.5
3423.8650,21343.5
3424.3418,21590.5
3424.8186,21640.5
3425.2954,21354.5
3425.7720,21621.5
3426.2485,21749.5
3426.7249,21541.5
3427.2012,21543.5
3427.6775,21617.5
3428.1536,21650.5
3428.6296,21591.5
3429.1055,21719.5
3429.5815,21764.5
3430.0571,21644.5
3430.5330,21560.5
3431.0085,21818.5
3431.4839,21699.5
3431.9595,21585.5
3432.4346,21774.5
3432.9099,21689.5
3433.3850,21661.5
3433.8601,21606.5
3434.3350,21794.5
3434.8098,21719.5
3435.2847,21698.5
3435.7593,21707.5
3436.2339,21917.5
3436.7085,21565.5
3437.1829,21709.5
3437.6570,21930.5
3438.1313,21780.5
3438.6055,21660.5
3439.0796,21884.5
3439.5535,21890.5
3440.0273,21620.5
3440.5010,21776.5
3440.9746,21934.5
3441.4482,21840.5
3441.9219,21748.5
3442.3953,22072.5
3442.8684,21944.5
3443.3418,21693.5
3443.8149,21822.5
3444.2878,22036.5
3444.7607,21907.5
3445.2336,21728.5
3445.7063,21965.5
3446.1790,22033.5
3446.6516,21846.5
3447.1240,21921.5
3447.5964,22233.5
3448.0688,21963.5
3448.5410,21873.5
3449.0132,21988.5
3449.4851,22034.5
3449.9573,21827.5
3450.4290,21910.5
3450.9009,22099.5
3451.3723,21990.5
3451.8440,22002.5
3452.3154,22099.5
3452.7869,22036.5
3453.2583,22140.5
3453.7295,22132.5
3454.2004,22250.5
3454.6716,22168.5
3455.1426,22062.5
3455.6133,22250.5
3456.0842,22342.5
3456.5547,22025.5
3457.0254,22110.5
3457.4958,22352.5
3457.9663,22086.5
3458.4365,21963.5
3458.9067,22375.5
3459.3770,22305.5
3459.8469,22225.5
3460.3169,22254.5
3460.7869,22429.5
3461.2566,22238.5
3461.7263,22003.5
3462.1958,22307.5
3462.6653,22525.5
3463.1348,22280.5
3463.6040,22324.5
3464.0732,22508.5
3464.5422,22337.5
3465.0115,22302.5
3465.4802,22469.5
3465.9492,22519.5
3466.4180,22309.5
3466.8867,22346.5
3467.3552,22438.5
3467.8237,22531.5
3468.2922,22379.5
3468.7605,22524.5
3469.2288,22695.5
3469.6968,22454.5
3470.1648,22490.5
3470.6328,22663.5
3471.1006,22582.5
3471.5684,22391.5
3472.0361,22652.5
3472.5037,22688.5
3472.9712,22443.5
3473.4387,22612.5
3473.9060,22853.5
3474.3733,22666.5
3474.8403,22474.5
3475.3074,22641.5
3475.7744,22807.5
3476.2412,22563.5
3476.7080,22506.5
3477.1748,22941.5
3477.6414,22660.5
3478.1079,22488.5
3478.5742,22763.5
3479.0405,22894.5
3479.5068,22564.5
3479.9731,22625.5
3480.4392,22915.5
3480.9050,22845.5
3481.3711,22715.5
3481.8367,22815.5
3482.3025,22907.5
3482.7681,22820.5
3483.2336,22736.5
3483.6990,23067.5
3484.1643,23093.5
3484.6296,22729.5
3485.0947,22918.5
3485.5598,23173.5
3486.0249,22894.5
3486.4897,22789.5
3486.9546,23028.5
3487.4192,23294.5
3487.8840,22823.5
3488.3484,23117.5
3488.8130,23129.5
3489.2773,23024.5
3489.7415,22958.5
3490.2058,23085.5
3490.6699,23172.5
3491.1338,23036.5
3491.5977,23048.5
3492.0615,23409.5
3492.5251,23224.5
3492.9890,22951.5
3493.4524,23054.5
3493.9160,23265.5
3494.3794,23141.5
3494.8425,23132.5
3495.3057,23323.5
3495.7688,23298.5
3496.2319,23123.5
3496.6948,23259.5
3497.1577,23330.5
3497.6204,23026.5
3498.0830,23128.5
3498.5457,23300.5
3499.0081,23377.5
3499.4705,22975.5
3499.9329,23366.5
3500.3950,23593.5
3500.8572,23286.5
3501.3191,23132.5
3501.7810,23542.5
3502.2429,23603.5
3502.7046,23372.5
3503.1663,23416.5
3503.6279,23489.5
3504.0894,23444.5
3504.5508,23305.5
3505.0122,23528.5
3505.4734,23523.5
3505.9346,23442.5
3506.3955,23515.5
3506.8564,23553.5
3507.3174,23577.5
3507.7783,23341.5
3508.2390,23600.5
3508.6995,23762.5
3509.1599,23479.5
3509.6204,23460.5
3510.0808,23803.5
3510.5410,23717.5
3511.0012,23470.5
3511.4612,23646.5
3511.9211,23836.5
3512.3811,23516.5
3512.8408,23354.5
3513.3005,23949.5
3513.7603,23843.5
3514.2197,23509.5
3514.6792,23591.5
3515.1387,23839.5
3515.5979,23755.5
3516.0571,23613.5
3516.5161,23915.5
3516.9751,24069.5
3517.4341,23706.5
3517.8928,23629.5
3518.3516,24025.5
3518.8103,23654.5
3519.2688,23617.5
3519.7273,23916.5
3520.1855,24071.5
3520.6440,23740.5
3521.1021,23660.5
3521.5603,23960.5
3522.0183,23908.5
3522.4763,23671.5
3522.9341,23878.5
3523.3918,24120.5
3523.8494,23815.5
3524.3071,23811.5
3524.7646,24006.5
3525.2219,24062.5
3525.6792,23894.5
3526.1365,23952.5
3526.5938,24268.5
3527.0508,23990.5
3527.5076,23717.5
3527.9646,24122.5
3528.4214,24259.5
3528.8779,23870.5
3529.3347,23891.5
3529.7910,24275.5
3530.2476,24272.5
3530.7039,23888.5
3531.1602,24186.5
3531.6162,24335.5
3532.0725,24099.5
3532.5283,23857.5
3532.9844,24253.5
3533.4402,24271.5
3533.8958,23973.5
3534.3513,24230.5
3534.8069,24375.5
3535.2625,24350.5
3535.7178,24022.5
3536.1731,24312.5
3536.6282,24537.5
3537.0835,24074.5
3537.5383,24134.5
3537.9934,24558.5
3538.4482,24365.5
3538.9028,24035.5
3539.3577,24431.5
3539.8123,24750.5
3540.2666,24344.5
3540.7209,24099.5
3541.1753,24594.5
3541.6296,24654.5
3542.0837,24168.5
3542.5378,24409.5
3542.9917,24620.5
3543.4456,24506.5
3543.8994,24101.5
3544.3530,24529.5
3544.8066,24691.5
3545.2603,24320.5
3545.7136,24210.5
3546.1670,24631.5
3546.6201,24669.5
3547.0732,24234.5
3547.5264,24534.5
3547.9795,24810.5
3548.4324,24517.5
3548.8850,24346.5
3549.3379,24653.5
3549.7905,24831.5
3550.2429,24393.5
3550.6956,24575.5
3551.1479,24922.5
3551.6001,24779.5
3552.0522,24443.5
3552.5044,24629.5
3552.9565,25023.5
3553.4084,24561.5
3553.8604,24394.5
3554.3120,24840.5
3554.7637,24956.5
3555.2153,24593.5
3555.6667,24594.5
3556.1182,25192.5
3556.5696,24879.5
3557.0208,24476.5
3557.4719,24882.5
3557.9229,25058.5
3558.3740,24689.5
3558.8247,24856.5
3559.2756,25074.5
3559.7263,25169.5
3560.1770,24707.5
3560.6274,24829.5
3561.0779,25192.5
3561.5283,24967.5
3561.9785,24501.5
3562.4287,25145.5
3562.8787,25286.5
3563.3289,24843.5
3563.7788,24732.5
3564.2285,25168.5
3564.6782,25281.5
3565.1279,24714.5
3565.5774,24912.5
3566.0269,25462.5
3566.4763,25062.5
3566.9258,24796.5
3567.3750,25187.5
3567.8240,25205.5
3568.2729,24920.5
3568.7219,24989.5
3569.1709,25508.5
3569.6196,25401.5
3570.0684,24839.5
3570.5171,25221.5
3570.9656,25622.5
3571.4138,25316.5
3571.8623,24983.5
3572.3105,25424.5
3572.7588,25463.5
3573.2068,25159.5
3573.6548,25076.5
3574.1028,25651.5
3574.5505,25521.5
3574.9983,24990.5
3575.4458,25321.5
3575.8936,25592.5
3576.3408,25253.5
3576.7883,25127.5
3577.2356,25705.5
3577.6829,25690.5
3578.1299,25280.5
3578.5769,25178.5
3579.0239,25677.5
3579.4707,25549.5
3579.9175,25189.5
3580.3643,25471.5
3580.8108,25777.5
3581.2573,25553.5
3581.7039,25296.5
3582.1501,25721.5
3582.5964,25897.5
3583.0425,25403.5
3583.4885,25423.5
3583.9346,26011.5
3584.3806,25816.5
3584.8264,25443.5
3585.2722,25695.5
3585.7178,26038.5
3586.1633,25581.5
3586.6089,25599.5
3587.0542,26053.5
3587.4995,26021.5
3587.9446,25583.5
3588.3899,25587.5
3588.8347,26067.5
3589.2798,26021.5
3589.7246,25496.5
3590.1694,25696.5
3590.6140,26195.5
3591.0588,25820.5
3591.5032,25513.5
3591.9478,26045.5
3592.3921,26102.5
3592.8362,25851.5
3593.2805,25688.5
3593.7246,26222.5
3594.1685,26301.5
3594.6125,25638.5
3595.0562,25940.5
3595.5000,26287.5
3595.9436,26058.5
3596.3872,25671.5
3596.8308,26021.5
3597.2742,26424.5
3597.7173,26078.5
3598.1606,25771.5
3598.6038,26428.5
3599.0469,26338.5
3599.4897,25855.5
3599.9326,26079.5
3600.3755,26439.5
3600.8181,26168.5
3601.2607,25889.5
3601.7031,26275.5
3602.1458,26602.5
3602.5881,26083.5
3603.0303,25878.5
3603.4724,26380.5
3603.9146,26393.5
3604.3567,25897.5
3604.7986,26115.5
3605.2402,26542.5
3605.6821,26379.5
3606.1238,26153.5
3606.5654,26443.5
3607.0068,26570.5
3607.4482,26371.5
3607.8896,26165.5
3608.3308,26566.5
3608.7720,26630.5
3609.2129,26164.5
3609.6541,26117.5
3610.0950,26704.5
3610.5356,26498.5
3610.9763,26007.5
3611.4170,26296.5
3611.8577,26663.5
3612.2981,26437.5
3612.7383,26252.5
3613.1787,26684.5
3613.6189,26718.5
3614.0591,26217.5
3614.4990,26381.5
3614.9390,26714.5
3615.3789,26755.5
3615.8186,26098.5
3616.2583,26310.5
3616.6978,26806.5
3617.1375,26648.5
3617.5769,26284.5
3618.0161,26578.5
3618.4553,26820.5
3618.8945,26521.5
3619.3337,26464.5
3619.7727,26868.5
3620.2114,26850.5
3620.6504,26316.5
3621.0891,26371.5
3621.5278,26878.5
3621.9663,26765.5
3622.4048,26383.5
3622.8433,26701.5
3623.2815,27097.5
3623.7197,26577.5
3624.1580,26396.5
3624.5959,26768.5
3625.0339,27116.5
3625.4717,26675.5
3625.9097,26556.5
3626.3472,26905.5
3626.7849,26915.5
3627.2224,26560.5
3627.6599,26590.5
3628.0972,26987.5
3628.5344,26790.5
3628.9717,26416.5
3629.4089,26776.5
3629.8459,26887.5
3630.2827,26654.5
3630.7197,26558.5
3631.1565,26835.5
3631.5930,26893.5
3632.0298,26516.5
3632.4663,26514.5
3632.9026,27115.5
3633.3389,26956.5
3633.7751,26547.5
3634.2114,26774.5
3634.6475,27130.5
3635.0835,26818.5
3635.5193,26507.5
3635.9551,26812.5
3636.3909,26925.5
3636.8267,26739.5
3637.2622,26601.5
3637.6978,27000.5
3638.1331,27018.5
3638.5684,26502.5
3639.0037,26650.5
3639.4387,27134.5
3639.8738,26897.5
3640.3088,26464.5
3640.7437,26836.5
3641.1785,27033.5
3641.6133,26697.5
3642.0479,26410.5
3642.4824,26709.5
3642.9167,26977.5
3643.3513,26547.5
3643.7854,26382.5
3644.2197,27008.5
3644.6538,27141.5
3645.0879,26564.5
3645.5217,26516.5
3645.9556,26955.5
3646.3894,26975.5
3646.8232,26386.5
3647.2568,26691.5
3647.6902,27177.5
3648.1238,26834.5
3648.5571,26417.5
3648.9902,26861.5
3649.4236,27044.5
3649.8567,26506.5
3650.2896,26367.5
3650.7227,27008.5
3651.1555,26877.5
3651.5881,26474.5
3652.0208,26535.5
3652.4534,26980.5
3652.8860,26835.5
3653.3184,26351.5
3653.7507,26677.5
3654.1829,27065.5
3654.6152,26799.5
3655.0471,26375.5
3655.4792,26719.5
3655.9111,26990.5
3656.3430,26520.5
3656.7747,26292.5
3657.2063,26874.5
3657.6379,26846.5
3658.0693,26465.5
3658.5007,26337.5
3658.9321,26937.5
3659.3633,26865.5
3659.7944,26239.5
3660.2256,26467.5
3660.6565,26838.5
3661.0874,26540.5
3661.5183,26422.5
3661.9490,26649.5
3662.3796,26983.5
3662.8101,26399.5
3663.2407,26084.5
3663.6711,26543.5
3664.1013,27011.5
3664.5315,26267.5
3664.9617,26252.5
3665.3918,26754.5
3665.8218,26770.5
3666.2515,26236.5
3666.6814,26232.5
3667.1111,26778.5
3667.5408,26659.5
3667.9702,25997.5
3668.3997,26285.5
3668.8291,26805.5
3669.2583,26253.5
3669.6875,26067.5
3670.1167,26435.5
3670.5457,26781.5
3670.9746,26285.5
3671.4036,26001.5
3671.8323,26689.5
3672.2610,26827.5
3672.6897,26144.5
3673.1182,26046.5
3673.5466,26633.5
3673.9749,26475.5
3674.4033,26009.5
3674.8313,26274.5
3675.2595,26667.5
3675.6875,26535.5
3676.1155,25920.5
3676.5432,26215.5
3676.9712,26719.5
3677.3987,26304.5
3677.8264,25792.5
3678.2539,26250.5
3678.6814,26705.5
3679.1086,26143.5
3679.5359,25769.5
3679.9631,26140.5
3680.3901,26603.5
3680.8171,25868.5
3681.2441,25803.5
3681.6709,26238.5
3682.0977,26328.5
3682.5244,25682.5
3682.9509,25941.5
3683.3774,26419.5
3683.8040,26225.5
3684.2302,25642.5
3684.6565,25919.5
3685.0828,26293.5
3685.5088,26163.5
3685.9348,25855.5
3686.3608,26154.5
3686.7866,26380.5
3687.2124,25948.5
3687.6379,25717.5
3688.0635,26040.5
3688.4890,26235.5
3688.9146,25741.5
3689.3398,25546.5
3689.7651,26254.5
3690.1902,26313.5
3690.6152,25803.5
3691.0403,25624.5
3691.4653,26216.5
3691.8901,25856.5
3692.3147,25496.5
3692.7395,25725.5
3693.1641,26197.5
3693.5886,26075.5
3694.0129,25558.5
3694.4373,25772.5
3694.8616,26294.5
3695.2856,25952.5
3695.7097,25642.5
3696.1338,25923.5
3696.5576,26338.5
3696.9814,25813.5
3697.4053,25482.5
3697.8289,26035.5
3698.2524,26089.5
3698.6760,25548.5
3699.0994,25543.5
3699.5227,25980.5
3699.9458,26120.5
3700.3691,25517.5
3700.7922,25461.5
3701.2151,25926.5
3701.6379,25921.5
3702.0608,25400.5
3702.4836,25567.5
3702.9063,25905.5
3703.3289,25648.5
3703.7512,25208.5
3704.1736,25586.5
3704.5959,26170.5
3705.0183,25543.5
3705.4404,25264.5
3705.8625,25606.5
3706.2844,25928.5
3706.7063,25477.5
3707.1282,25233.5
3707.5498,25701.5
3707.9717,25958.5
3708.3931,25446.5
3708.8147,25264.5
3709.2361,25781.5
3709.6572,25961.5
3710.0786,25484.5
3710.4998,25441.5
3710.9209,25805.5
3711.3418,25861.5
3711.7627,25250.5
3712.1836,25168.5
3712.6042,25894.5
3713.0249,25744.5
3713.4456,25228.5
3713.8660,25327.5
3714.2864,25881.5
3714.7068,25705.5
3715.1270,25253.5
3715.5471,25594.5
3715.9670,25812.5
3716.3872,25495.5
3716.8071,25199.5
3717.2268,25457.5
3717.6465,25976.5
3718.0662,25594.5
3718.4858,25152.5
3718.9053,25642.5
3719.3247,25827.5
3719.7441,25367.5
3720.1633,25077.5
3720.5825,25594.5
3721.0015,25766.5
3721.4204,25094.5
3721.8394,25162.5
3722.2583,25662.5
3722.6770,25726.5
3723.0957,25159.5
3723.5142,25106.5
3723.9326,25679.5
3724.3511,25498.5
3724.7695,25071.5
3725.1877,25187.5
3725.6060,25717.5
3726.0239,25493.5
3726.4419,24954.5
3726.8599,25198.5
3727.2776,25584.5
3727.6956,25309.5
3728.1130,25045.5
3728.5308,25399.5
3728.9482,25661.5
3729.3657,25353.5
3729.7830,25064.5
3730.2002,25166.5
3730.6174,25668.5
3731.0344,25233.5
3731.4514,25082.5
3731.8684,25371.5
3732.2852,25676.5
3732.4844,25093.7
3732.9426,25080.7
3733.4009,25155.7
3733.8589,25215.7
3734.3169,24997.7
3734.7749,25219.7
3735.2327,25110.7
3735.6904,25191.7
3736.1482,25093.7
3736.6057,25040.7
3737.0632,25167.7
3737.5205,25082.7
3737.9778,25182.7
3738.4351,24981.7
3738.8921,25228.7
3739.3491,25132.7
3739.8062,25154.7
3740.2629,25178.7
3740.7197,25097.7
3741.1765,24933.7
3741.6331,25002.7
3742.0896,24994.7
3742.5459,24999.7
3743.0022,24965.7
3743.4585,25021.7
3743.9146,25060.7
3744.3706,25013.7
3744.8267,25058.7
3745.2825,24891.7
3745.7383,24904.7
3746.1938,24971.7
3746.6497,24831.7
3747.1050,25126.7
3747.5605,24939.7
3748.0159,25013.7
3748.4712,24939.7
3748.9263,24874.7
3749.3813,24739.7
3749.8364,25041.7
3750.2913,24987.7
3750.7461,24946.7
3751.2007,24826.7
3751.6555,24930.7
3752.1099,24911.7
3752.5645,24798.7
3753.0188,24847.7
3753.4731,25021.7
3753.9272,24861.7
3754.3813,24971.7
3754.8354,25033.7
3755.2893,24822.7
3755.7432,24731.7
3756.1968,24918.7
3756.6504,24852.7
3757.1040,24866.7
3757.5576,24839.7
3758.0110,24955.7
3758.4641,24748.7
3758.9175,24884.7
3759.3706,24789.7
3759.8235,24736.7
3760.2766,24598.7
3760.7295,24890.7
3761.1821,24632.7
3761.6348,24762.7
3762.0874,24725.7
3762.5400,24683.7
3762.9924,24662.7
3763.4448,24692.7
3763.8970,24589.7
3764.3491,24705.7
3764.8013,24806.7
3765.2532,24622.7
3765.7051,24790.7
3766.1567,24870.7
3766.6086,24535.7
3767.0601,24736.7
3767.5117,24738.7
3767.9631,24576.7
3768.4146,24623.7
3768.8657,24778.7
3769.3169,24831.7
3769.7681,24691.7
3770.2190,24672.7
3770.6699,24574.7
3771.1208,24746.7
3771.5715,24750.7
3772.0222,24381.7
3772.4727,24777.7
3772.9233,24754.7
3773.3735,24701.7
3773.8240,24457.7
3774.2742,24604.7
3774.7244,24656.7
3775.1743,24429.7
3775.6243,24614.7
3776.0742,24486.7
3776.5239,24590.7
3776.9736,24533.7
3777.4231,24603.7
3777.8726,24588.7
3778.3220,24501.7
3778.7715,24464.7
3779.2207,24717.7
3779.6699,24464.7
3780.1189,24502.7
3780.5679,24562.7
3781.0168,24742.7
3781.4656,24610.7
3781.9143,24445.7
3782.3630,24576.7
3782.8115,24428.7
3783.2600,24458.7
3783.7083,24468.7
3784.1565,24378.7
3784.6047,24235.7
3785.0530,24485.7
3785.5010,24316.7
3785.9487,24334.7
3786.3967,24350.7
3786.8445,24362.7
3787.2920,24248.7
3787.7397,24350.7
3788.1873,24299.7
3788.6345,24188.7
3789.0818,24267.7
3789.5291,24326.7
3789.9763,24231.7
3790.4233,24384.7
3790.8704,24178.7
3791.3171,24159.7
3791.7639,24244.7
3792.2107,24306.7
3792.6572,24194.7
3793.1038,24173.7
3793.5503,24334.7
3793.9966,24381.7
3794.4429,24119.7
3794.8889,24344.7
3795.3350,24239.7
3795.7810,24095.7
3796.2271,24063.7
3796.6729,24525.7
3797.1187,24068.7
3797.5642,24108.7
3798.0098,24261.7
3798.4553,24274.7
3798.9006,24091.7
3799.3459,24108.7
3799.7913,24063.7
3800.2363,24349.7
3800.6814,24149.7
3801.1262,24198.7
3801.5710,24126.7
3802.0159,24193.7
3802.4607,24154.7
3802.9053,23993.7
3803.3499,24236.7
3803.7942,24184.7
3804.2385,24006.7
3804.6829,24062.7
3805.1270,24197.7
3805.5710,24106.7
3806.0151,23885.7
3806.4590,24009.7
3806.9028,24118.7
3807.3464,24004.7
3807.7900,23795.7
3808.2336,24031.7
3808.6772,23942.7
3809.1206,24171.7
3809.5640,23954.7
3810.0071,23951.7
3810.4502,23885.7
3810.8933,23959.7
3811.3362,23908.7
3811.7791,23926.7
3812.2219,23874.7
3812.6646,24059.7
3813.1072,23850.7
3813.5496,23851.7
3813.9919,23939.7
3814.4343,23746.7
3814.8767,23838.7
3815.3188,24001.7
3815.7610,23919.7
3816.2029,23823.7
3816.6448,23780.7
3817.0867,23982.7
3817.5283,23895.7
3817.9700,23719.7
3818.4116,23829.7
3818.8530,23858.7
3819.2944,23743.7
3819.7358,23822.7
3820.1770,23950.7
3820.6182,23749.7
3821.0591,23865.7
3821.5000,23693.7
3821.9409,23819.7
3822.3818,23838.7
3822.8225,23888.7
3823.2629,23769.7
3823.7036,23699.7
3824.1440,23813.7
3824.5845,23826.7
3825.0247,23659.7
3825.4648,23909.7
3825.9048,23803.7
3826.3450,23728.7
3826.7849,23647.7
3827.2246,23842.7
3827.6643,23761.7
3828.1040,23546.7
3828.5437,23628.7
3828.9832,23757.7
3829.4224,23688.7
3829.8618,23723.7
3830.3010,23844.7
3830.7402,23712.7
3831.1792,23662.7
3831.6182,23674.7
3832.0571,23502.7
3832.4958,23559.7
3832.9346,23608.7
3833.3733,23762.7
3833.8118,23636.7
3834.2502,23768.7
3834.6885,23577.7
3835.1267,23556.7
3835.5649,23642.7
3836.0032,23428.7
3836.4412,23674.7
3836.8792,23776.7
3837.3169,23681.7
3837.7546,23382.7
3838.1924,23664.7
3838.6299,23678.7
3839.0674,23600.7
3839.5049,23557.7
3839.9421,23615.7
3840.3794,23873.7
3840.8167,23549.7
3841.2537,23709.7
3841.6907,23492.7
3842.1274,23634.7
3842.5642,23530.7
3843.0010,23479.7
3843.4377,23628.7
3843.8743,23619.7
3844.3108,23682.7
3844.7471,23677.7
3845.1833,23631.7
3845.6196,23646.7
3846.0557,23675.7
3846.4917,23547.7
3846.9277,23785.7
3847.3635,23408.7
3847.7993,23500.7
3848.2351,23540.7
3848.6707,23580.7
3849.1062,23491.7
3849.5415,23382.7
3849.9771,23563.7
3850.4121,23558.7
3850.8474,23463.7
3851.2825,23635.7
3851.7175,23622.7
3852.1523,23530.7
3852.5872,23615.7
3853.0220,23566.7
3853.4565,23573.7
3853.8911,23505.7
3854.3257,23619.7
3854.7603,23566.7
3855.1943,23574.7
3855.6287,23463.7
3856.0627,23420.7
3856.4968,23545.7
3856.9309,23594.7
3857.3647,23631.7
3857.7986,23421.7
3858.2324,23578.7
3858.6660,23668.7
3859.0996,23467.7
3859.5330,23668.7
3859.9663,23669.7
3860.3997,23516.7
3860.8328,23664.7
3861.2659,23546.7
3861.6990,23590.7
3862.1321,23659.7
3862.5649,23499.7
3862.9976,23597.7
3863.4304,23644.7
3863.8630,23482.7
3864.2954,23426.7
3864.7278,23605.7
3865.1602,23563.7
3865.5925,23514.7
3866.0247,23430.7
3866.4568,23679.7
3866.8889,23529.7
3867.3208,23435.7
3867.7527,23490.7
3868.1843,23810.7
3868.6160,23622.7
3869.0476,23415.7
3869.4790,23663.7
3869.9106,23740.7
3870.3418,23511.7
3870.7732,23413.7
3871.2043,23548.7
3871.6353,23747.7
3872.0664,23606.7
3872.4973,23526.7
3872.9280,23786.7
3873.3589,23624.7
3873.7896,23550.7
3874.2200,23628.7
3874.6504,23804.7
3875.0808,23601.7
3875.5112,23535.7
3875.9414,23521.7
3876.3716,23594.7
3876.8015,23634.7
3877.2317,23545.7
3877.6614,23597.7
3878.0913,23521.7
3878.5210,23669.7
3878.9507,23453.7
3879.3801,23603.7
3879.8096,23639.7
3880.2390,23613.7
3880.6682,23590.7
3881.0974,23490.7
3881.5266,23765.7
3881.9556,23467.7
3882.3845,23579.7
3882.8135,23623.7
3883.2422,23648.7
3883.6709,23508.7
3884.0996,23609.7
3884.5281,23761.7
3884.9565,23875.7
3885.3850,23590.7
3885.8132,23508.7
3886.2415,23747.7
3886.6694,23594.7
3887.0974,23747.7
3887.5254,23751.7
3887.9534,23721.7
3888.3811,23692.7
3888.8088,23455.7
3889.2363,23608.7
3889.6638,23632.7
3890.0913,23562.7
3890.5186,23607.7
3890.9458,23475.7
3891.3730,23730.7
3891.8000,23577.7
3892.2271,23501.7
3892.6541,23666.7
3893.0808,23734.7
3893.5076,23559.7
3893.9343,23578.7
3894.3608,23746.7
3894.7874,23730.7
3895.2139,23517.7
3895.6401,23566.7
3896.0664,23681.7
3896.4924,23636.7
3896.9185,23570.7
3897.3445,23546.7
3897.7705,23862.7
3898.1963,23727.7
3898.6221,23644.7
3899.0476,23623.7
3899.4731,23689.7
3899.8987,23583.7
3900.3242,23670.7
3900.7495,23656.7
3901.1746,23616.7
3901.5999,23591.7
3902.0249,23524.7
3902.4500,23663.7
3902.8748,23768.7
3903.2996,23551.7
3903.7244,23485.7
3904.1489,23613.7
3904.5735,23820.7
3904.9980,23525.7
3905.4224,23656.7
3905.8467,23824.7
3906.2708,23566.7
3906.6951,23408.7
3907.1191,23655.7
3907.5430,23746.7
3907.9668,23696.7
3908.3906,23497.7
3908.8145,23717.7
3909.2380,23703.7
3909.6616,23549.7
3910.0850,23629.7
3910.5083,23546.7
3910.9316,23799.7
3911.3550,23719.7
3911.7781,23539.7
3912.2012,23619.7
3912.6240,23765.7
3913.0469,23673.7
3913.4697,23371.7
3913.8923,23639.7
3914.3149,23875.7
3914.7375,23484.7
3915.1602,23619.7
3915.5825,23938.7
3916.0046,23760.7
3916.4270,23475.7
3916.8491,23568.7
3917.2710,23815.7
3917.6931,23648.7
3918.1150,23516.7
3918.5366,23660.7
3918.9583,23621.7
3919.3799,23763.7
3919.8015,23658.7
3920.2229,23555.7
3920.6443,23683.7
3921.0657,23611.7
3921.4868,23471.7
3921.9080,23698.7
3922.3289,23732.7
3922.7500,23693.7
3923.1707,23518.7
3923.5916,23565.7
3924.0122,23817.7
3924.4329,23537.7
3924.8533,23554.7
3925.2739,23667.7
3925.6941,23659.7
3926.1145,23756.7
3926.5347,23496.7
3926.9548,23849.7
3927.3748,23717.7
3927.7947,23632.7
3928.2146,23446.7
3928.6343,23661.7
3929.0540,23657.7
3929.4736,23561.7
3929.8931,23496.7
3930.3127,23781.7
3930.7319,23768.7
3931.1514,23493.7
3931.5706,23476.7
3931.9895,23671.7
3932.4087,23604.7
3932.8276,23424.7
3933.2463,23492.7
3933.6650,23738.7
3934.0837,23631.7
3934.5024,23389.7
3934.9209,23541.7
3935.3394,23728.7
3935.7578,23548.7
3936.1760,23419.7
3936.5942,23591.7
3937.0125,23878.7
3937.4304,23713.7
3937.8484,23451.7
3938.2661,23393.7
3938.6838,23696.7
3939.1016,23506.7
3939.5193,23289.7
3939.9368,23444.7
3940.3542,23711.7
3940.7715,23772.7
3941.1890,23399.7
3941.6060,23638.7
3942.0232,23723.7
3942.4402,23521.7
3942.8572,23215.7
3943.2739,23560.7
3943.6907,23825.7
3944.1074,23568.7
3944.5242,23277.7
3944.9407,23361.7
3945.3569,23659.7
3945.7734,23369.7
3946.1897,23230.7
3946.6060,23513.7
3947.0220,23751.7
3947.4380,23376.7
3947.8540,23344.7
3948.2698,23614.7
3948.6855,23670.7
3949.1013,23490.7
3949.5168,23280.7
3949.9324,23685.7
3950.3479,23575.7
3950.7632,23365.7
3951.1785,23356.7
3951.5938,23535.7
3952.0088,23675.7
3952.4238,23416.7
3952.8389,23314.7
3953.2537,23484.7
3953.6685,23648.7
3954.0833,23365.7
3954.4978,23395.7
3954.9124,23650.7
3955.3269,23627.7
3955.7412,23233.7
3956.1555,23253.7
3956.5698,23545.7
3956.9839,23634.7
3957.3979,23277.7
3957.8118,23234.7
3958.2258,23678.7
3958.6396,23615.7
3959.0532,23173.7
3959.4668,23351.7
3959.8804,23579.7
3960.2939,23532.7
3960.7073,23307.7
3961.1206,23283.7
3961.5337,23599.7
3961.9470,23467.7
3962.3599,23101.7
3962.7729,23304.7
3963.1858,23813.7
3963.5986,23496.7
3964.0112,23283.7
3964.4241,23296.7
3964.8364,23698.7
3965.2490,23622.7
3965.6614,23158.7
3966.0737,23211.7
3966.4858,23675.7
3966.8982,23516.7
3967.3101,23221.7
3967.7222,23270.7
3968.1340,23669.7
3968.5459,23633.7
3968.9575,23150.7
3969.3691,23344.7
3969.7808,23655.7
3970.1924,23557.7
3970.6038,23124.7
3971.0149,23337.7
3971.4263,23739.7
3971.8374,23750.7
3972.2485,23140.7
3972.6594,23293.7
3973.0703,23836.7
3973.4812,23745.7
3973.8918,23385.7
3974.3025,23251.7
3974.7131,23752.7
3975.1238,23584.7
3975.5342,23251.7
3975.9443,23546.7
3976.3547,23835.7
3976.7649,23473.7
3977.1750,23138.7
3977.5850,23435.7
3977.9949,23636.7
3978.4048,23580.7
3978.8145,23116.7
3979.2241,23331.7
3979.6338,23836.7
3980.0432,23628.7
3980.4526,23372.7
3980.8621,23396.7
3981.2712,23550.7
3981.6804,23517.7
3982.0896,23252.7
3982.4985,23334.7
3982.9075,23740.7
3983.3164,23523.7
3983.7251,23275.7
3984.1338,23490.7
3984.5425,23641.7
3984.9509,23525.7
3985.3594,23222.7
3985.7678,23456.7
3986.1760,23699.7
3986.5842,23556.7
3986.9924,23348.7
3987.4004,23430.7
3987.8083,23750.7
3988.2163,23676.7
3988.6240,23217.7
3989.0317,23404.7
3989.4395,23794.7
3989.8469,23709.7
3990.2544,23197.7
3990.6619,23447.7
3991.0691,23871.7
3991.4763,23749.7
3991.8835,23345.7
3992.2905,23474.7
3992.6975,23791.7
3993.1045,23642.7
3993.5112,23356.7
3993.9180,23591.7
3994.3247,23687.7
3994.7312,23726.7
3995.1377,23449.7
3995.5442,23325.7
3995.9504,23927.7
3996.3567,23728.7
3996.7627,23332.7
3997.1689,23531.7
3997.5750,23947.7
3997.9807,23732.7
3998.3867,23465.7
3998.7925,23416.7
3999.1980,23922.7
3999.6038,23698.7
4000.0090,23290.7

##### Extended Information
[āRāüāōāgÅŅĢ±]
ÄÄŚ┐¢╝,
āRāüāōāg,
æ¬ÆĶÄę
ÅŖæ«
ē’Äą,Ģ║ī╔ī¦Ś¦æÕŖwæÕŖwē@ŹHŖwīżŗåē╚

[āfü[ā^ÅŅĢ±]
ŹņÉ¼ō·Ä×,2025/10/24 12:30

āfü[ā^ā^āCāv,ĢsōÖŖįŖuāfü[ā^
ēĪÄ▓,Raman Shift [cm-1]
ÅcÄ▓,Int.
āXā^ü[āg,999.935 cm-1
āGāōāh,4000.01 cm-1
āfü[ā^Éö,5263    

[æ¬ÆĶÅŅĢ±]
ŗ@ÄĒ¢╝,NRS-4500
āVāŖāAāŗöįŹå,C004261984

æ¬ÆĶō·Ä×,2025/10/24 12:29

śIī§Ä×Ŗį,1 sec
ÉŽÄZē±Éö,1
ÆåÉSögÉö,1618.53 cm-1
ZāXāeü[āWł╩Æu,14360.6 um
ārājāōāOÅŃī└,70
ārājāōāOē║ī└,129
ŚLī°ā`āāāōālāŗö═ł═,1 - 1650
Shift Speed,13 usecs
Readout Rate,1.48MHz at 16-bit
Pre-Amplifier Gain,1x
Enable Keep Cleans,ON
Baseline Clamp,OFF
CCD,DR32400_FI

ŚŃŗNögÆĘ,531.94 nm
Ģ¬ī§ŖĒ,āVāōāOāŗ
āOāīü[āeāBāōāO,L2400
āXāŖābāgĢØ,āė100 um
āŖāWāFāNāVāćāōātāBāŗā^ü[,531.9 nm
Ģ¬ē­,4.35 cm-1, 0.70 cm-1/pixel
æ╬Ģ©āīāōāY,MPLFLN 100 x
BS/DM,BS 30/70
āīü[āUü[ŗŁōx,18.9 mW
īĖī§ŖĒ,100%(āIü[āvāō)
ēFÆłÉ³Å£ŗÄ,On
CCDēĘōx,-60.0 C
ögÉöāVātāg,-2.70 cm-1

