TITLE,
DATA TYPE,RAMAN SPECTRUM
ORIGIN,JASCO
OWNER,
DATE,25/10/24
TIME,12:19:52
SPECTROMETER/DATA SYSTEM,
LOCALE,1041
XUNITS,1/CM
YUNITS,INTENSITY
FIRSTX,  999.9351
LASTX, 4000.0857
NPOINTS,    5264
XYDATA
999.9351,2491
1000.7448,2519
1001.5543,2511
1002.3637,2495
1003.1730,2513
1003.9821,2498
1004.7911,2525
1005.5999,2532
1006.4086,2529
1007.2171,2532
1008.0255,2512
1008.8337,2562
1009.6418,2550
1010.4497,2550
1011.2575,2562
1012.0651,2549
1012.8726,2584
1013.6799,2555
1014.4871,2550
1015.2941,2579
1016.1010,2567
1016.9078,2574
1017.7144,2597
1018.5208,2584
1019.3271,2587
1020.1332,2573
1020.9392,2617
1021.7451,2599
1022.5508,2597
1023.3563,2603
1024.1617,2624
1024.9669,2611
1025.7721,2630
1026.5770,2640
1027.3818,2610
1028.1865,2641
1028.9910,2632
1029.7954,2672
1030.5996,2638
1031.4037,2677
1032.2075,2689
1033.0114,2671
1033.8149,2686
1034.6184,2674
1035.4218,2689
1036.2250,2708
1037.0280,2684
1037.8308,2680
1038.6335,2683
1039.4362,2699
1040.2386,2753
1041.0409,2757
1041.8430,2722
1042.6450,2710
1043.4469,2736
1044.2487,2739
1045.0502,2732
1045.8516,2755
1046.6528,2764
1047.4540,2763
1048.2549,2764
1049.0557,2802
1049.8564,2817
1050.6569,2798
1051.4573,2775
1052.2576,2804
1053.0576,2809
1053.8575,2788
1054.6573,2785
1055.4569,2855
1056.2565,2834
1057.0558,2819
1057.8550,2874
1058.6541,2848
1059.4529,2848
1060.2517,2838
1061.0503,2862
1061.8488,2855
1062.6471,2853
1063.4452,2873
1064.2433,2884
1065.0411,2914
1065.8389,2913
1066.6365,2889
1067.4338,2895
1068.2312,2861
1069.0283,2906
1069.8253,2891
1070.6222,2951
1071.4188,2908
1072.2155,2928
1073.0118,2936
1073.8081,2930
1074.6042,2970
1075.4001,2973
1076.1959,2958
1076.9917,2937
1077.7872,2994
1078.5825,3010
1079.3778,2993
1080.1729,2972
1080.9679,2980
1081.7627,2972
1082.5573,3008
1083.3518,3055
1084.1461,3018
1084.9403,3005
1085.7344,3017
1086.5283,3032
1087.3221,3038
1088.1157,3033
1088.9093,3050
1089.7026,3028
1090.4957,3072
1091.2888,3056
1092.0817,3060
1092.8745,3046
1093.6671,3036
1094.4596,3041
1095.2518,3061
1096.0441,3096
1096.8361,3071
1097.6279,3075
1098.4197,3097
1099.2113,3125
1100.0027,3070
1100.7939,3101
1101.5852,3100
1102.3762,3124
1103.1670,3127
1103.9578,3103
1104.7483,3097
1105.5387,3117
1106.3290,3142
1107.1191,3124
1107.9092,3182
1108.6990,3149
1109.4886,3183
1110.2782,3177
1111.0676,3156
1111.8569,3191
1112.6460,3134
1113.4351,3181
1114.2239,3145
1115.0126,3155
1115.8010,3158
1116.5895,3184
1117.3777,3183
1118.1658,3219
1118.9537,3171
1119.7416,3152
1120.5293,3193
1121.3168,3201
1122.1041,3219
1122.8914,3211
1123.6785,3183
1124.4655,3208
1125.2522,3211
1126.0389,3238
1126.8254,3202
1127.6118,3217
1128.3979,3235
1129.1841,3200
1129.9700,3247
1130.7559,3238
1131.5415,3233
1132.3269,3234
1133.1123,3282
1133.8976,3249
1134.6826,3271
1135.4675,3266
1136.2523,3257
1137.0370,3251
1137.8214,3257
1138.6058,3296
1139.3900,3245
1140.1741,3274
1140.9580,3308
1141.7417,3288
1142.5254,3332
1143.3088,3322
1144.0922,3336
1144.8754,3308
1145.6584,3344
1146.4414,3345
1147.2241,3354
1148.0067,3380
1148.7892,3372
1149.5715,3342
1150.3538,3362
1151.1359,3391
1151.9177,3401
1152.6995,3379
1153.4811,3381
1154.2626,3392
1155.0439,3395
1155.8251,3411
1156.6061,3442
1157.3871,3397
1158.1677,3436
1158.9484,3456
1159.7289,3434
1160.5092,3446
1161.2894,3474
1162.0695,3487
1162.8494,3498
1163.6290,3484
1164.4087,3490
1165.1881,3462
1165.9675,3557
1166.7467,3488
1167.5256,3537
1168.3046,3486
1169.0834,3520
1169.8619,3563
1170.6404,3536
1171.4187,3568
1172.1969,3516
1172.9750,3560
1173.7528,3582
1174.5306,3599
1175.3082,3555
1176.0857,3567
1176.8630,3615
1177.6401,3654
1178.4172,3582
1179.1941,3619
1179.9708,3630
1180.7476,3643
1181.5239,3635
1182.3003,3637
1183.0765,3646
1183.8525,3675
1184.6284,3667
1185.4042,3689
1186.1798,3671
1186.9553,3683
1187.7306,3722
1188.5057,3708
1189.2809,3748
1190.0558,3705
1190.8304,3728
1191.6051,3762
1192.3796,3780
1193.1539,3752
1193.9281,3759
1194.7021,3780
1195.4761,3776
1196.2499,3759
1197.0234,3798
1197.7970,3803
1198.5703,3806
1199.3435,3808
1200.1166,3845
1200.8895,3836
1201.6622,3853
1202.4349,3838
1203.2074,3831
1203.9797,3859
1204.7520,3872
1205.5240,3874
1206.2959,3876
1207.0677,3918
1207.8394,3913
1208.6108,3878
1209.3822,3922
1210.1534,3927
1210.9246,3944
1211.6954,3960
1212.4662,3935
1213.2369,3916
1214.0074,3929
1214.7777,3933
1215.5480,3963
1216.3181,3978
1217.0880,3945
1217.8578,3978
1218.6274,4012
1219.3970,3990
1220.1664,3978
1220.9357,4017
1221.7047,4039
1222.4736,4045
1223.2426,4074
1224.0112,4088
1224.7797,4071
1225.5481,4101
1226.3164,4108
1227.0845,4091
1227.8524,4062
1228.6202,4122
1229.3879,4166
1230.1555,4148
1230.9230,4099
1231.6902,4146
1232.4573,4136
1233.2244,4180
1233.9912,4150
1234.7578,4184
1235.5244,4165
1236.2909,4213
1237.0571,4263
1237.8232,4228
1238.5894,4255
1239.3551,4272
1240.1208,4271
1240.8865,4251
1241.6519,4274
1242.4172,4316
1243.1824,4315
1243.9474,4360
1244.7123,4364
1245.4771,4347
1246.2416,4317
1247.0061,4334
1247.7704,4409
1248.5345,4352
1249.2986,4391
1250.0625,4411
1250.8263,4456
1251.5900,4424
1252.3534,4477
1253.1167,4466
1253.8799,4429
1254.6429,4451
1255.4059,4532
1256.1687,4498
1256.9314,4554
1257.6938,4520
1258.4562,4585
1259.2184,4634
1259.9805,4597
1260.7424,4608
1261.5043,4595
1262.2660,4679
1263.0275,4621
1263.7888,4614
1264.5500,4665
1265.3112,4705
1266.0721,4777
1266.8330,4720
1267.5936,4755
1268.3542,4744
1269.1146,4740
1269.8749,4804
1270.6350,4787
1271.3950,4822
1272.1549,4797
1272.9147,4874
1273.6742,4940
1274.4336,4935
1275.1929,4920
1275.9520,4953
1276.7111,4983
1277.4700,5012
1278.2288,4988
1278.9873,5014
1279.7458,5065
1280.5042,5025
1281.2623,5053
1282.0204,5129
1282.7783,5148
1283.5360,5130
1284.2937,5212
1285.0511,5171
1285.8085,5189
1286.5657,5231
1287.3228,5251
1288.0797,5238
1288.8365,5291
1289.5931,5332
1290.3497,5319
1291.1061,5365
1291.8623,5378
1292.6184,5383
1293.3744,5347
1294.1302,5445
1294.8860,5492
1295.6415,5476
1296.3970,5519
1297.1522,5522
1297.9073,5507
1298.6624,5533
1299.4172,5618
1300.1719,5645
1300.9265,5670
1301.6809,5700
1302.4353,5670
1303.1895,5755
1303.9435,5736
1304.6974,5784
1305.4512,5743
1306.2047,5830
1306.9583,5852
1307.7115,5852
1308.4647,5927
1309.2179,5943
1309.9708,5959
1310.7235,6042
1311.4762,6037
1312.2288,6104
1312.9811,6043
1313.7334,6132
1314.4855,6238
1315.2374,6248
1315.9893,6301
1316.7410,6266
1317.4926,6349
1318.2439,6400
1318.9952,6454
1319.7463,6422
1320.4973,6532
1321.2482,6664
1321.9989,6744
1322.7495,6857
1323.5000,7022
1324.2502,7215
1325.0005,7557
1325.7505,8166
1326.5005,9247
1327.2502,11335
1327.9999,14622
1328.7493,18288
1329.4987,21221
1330.2479,22217
1330.9969,20822
1331.7460,17021
1332.4948,12992
1333.2434,10248
1333.9919,8768
1334.7404,8075
1335.4886,7778
1336.2367,7648
1336.9847,7544
1337.7325,7549
1338.4803,7438
1339.2279,7419
1339.9753,7475
1340.7227,7444
1341.4697,7457
1342.2168,7475
1342.9637,7588
1343.7104,7597
1344.4570,7603
1345.2036,7615
1345.9500,7620
1346.6962,7669
1347.4423,7779
1348.1881,7775
1348.9340,7848
1349.6796,7881
1350.4252,7923
1351.1705,8046
1351.9158,8040
1352.6609,8023
1353.4059,8176
1354.1508,8198
1354.8955,8281
1355.6400,8346
1356.3845,8330
1357.1288,8463
1357.8729,8538
1358.6169,8652
1359.3608,8598
1360.1046,8672
1360.8483,8743
1361.5917,8813
1362.3351,8919
1363.0782,8895
1363.8214,9035
1364.5643,9052
1365.3071,9179
1366.0498,9253
1366.7924,9321
1367.5348,9379
1368.2770,9439
1369.0192,9508
1369.7611,9615
1370.5031,9647
1371.2448,9762
1371.9863,9768
1372.7278,9868
1373.4691,9948
1374.2102,10120
1374.9513,10118
1375.6923,10205
1376.4330,10336
1377.1736,10409
1377.9141,10534
1378.6545,10484
1379.3948,10696
1380.1348,10733
1380.8748,10874
1381.6146,10920
1382.3542,11049
1383.0939,11013
1383.8333,11135
1384.5725,11289
1385.3118,11283
1386.0508,11471
1386.7897,11593
1387.5283,11613
1388.2670,11658
1389.0055,11777
1389.7438,11902
1390.4821,11950
1391.2201,12018
1391.9580,12213
1392.6958,12214
1393.4335,12221
1394.1710,12344
1394.9084,12493
1395.6456,12564
1396.3828,12613
1397.1198,12687
1397.8567,12800
1398.5934,12963
1399.3300,13018
1400.0664,13031
1400.8027,13059
1401.5389,13200
1402.2750,13325
1403.0109,13332
1403.7467,13393
1404.4823,13480
1405.2179,13507
1405.9532,13572
1406.6885,13683
1407.4236,13692
1408.1586,13781
1408.8934,13808
1409.6281,13860
1410.3627,13935
1411.0972,14043
1411.8314,14050
1412.5656,14075
1413.2997,14086
1414.0336,14139
1414.7673,14180
1415.5010,14108
1416.2345,14105
1416.9678,14235
1417.7010,14330
1418.4341,14262
1419.1671,14218
1419.8999,14315
1420.6327,14300
1421.3652,14343
1422.0977,14358
1422.8300,14266
1423.5621,14288
1424.2941,14259
1425.0260,14263
1425.7578,14231
1426.4894,14317
1427.2209,14206
1427.9523,14207
1428.6835,14263
1429.4146,14102
1430.1455,14106
1430.8763,14053
1431.6071,14129
1432.3376,14019
1433.0680,13970
1433.7983,13929
1434.5286,13941
1435.2585,13879
1435.9884,13907
1436.7181,13788
1437.4478,13725
1438.1772,13594
1438.9066,13590
1439.6359,13498
1440.3650,13481
1441.0940,13485
1441.8228,13377
1442.5515,13307
1443.2800,13403
1444.0084,13191
1444.7368,13109
1445.4650,12984
1446.1930,12961
1446.9209,13012
1447.6486,12901
1448.3762,12776
1449.1038,12773
1449.8311,12642
1450.5583,12627
1451.2854,12583
1452.0125,12458
1452.7393,12408
1453.4659,12348
1454.1925,12335
1454.9189,12227
1455.6453,12080
1456.3715,12099
1457.0974,12036
1457.8234,12024
1458.5492,11965
1459.2748,11808
1460.0002,11730
1460.7257,11734
1461.4509,11610
1462.1760,11609
1462.9010,11594
1463.6259,11468
1464.3506,11390
1465.0752,11383
1465.7996,11315
1466.5239,11268
1467.2482,11112
1467.9722,11108
1468.6960,11054
1469.4199,11030
1470.1436,11017
1470.8671,10850
1471.5905,10807
1472.3137,10785
1473.0369,10725
1473.7599,10739
1474.4827,10654
1475.2054,10543
1475.9281,10585
1476.6505,10488
1477.3729,10547
1478.0951,10343
1478.8171,10371
1479.5391,10275
1480.2609,10280
1480.9825,10166
1481.7041,10161
1482.4255,10168
1483.1469,10093
1483.8680,10040
1484.5890,10079
1485.3099,9916
1486.0306,9923
1486.7512,9864
1487.4718,9850
1488.1921,9850
1488.9124,9809
1489.6324,9745
1490.3524,9773
1491.0723,9655
1491.7920,9658
1492.5116,9599
1493.2310,9647
1493.9503,9563
1494.6696,9550
1495.3885,9515
1496.1074,9454
1496.8263,9499
1497.5449,9479
1498.2634,9478
1498.9818,9458
1499.7001,9371
1500.4182,9304
1501.1362,9257
1501.8541,9258
1502.5719,9279
1503.2894,9259
1504.0070,9220
1504.7242,9272
1505.4415,9268
1506.1586,9241
1506.8756,9160
1507.5924,9162
1508.3091,9084
1509.0256,9115
1509.7421,9086
1510.4584,9073
1511.1746,9084
1511.8906,9057
1512.6064,9022
1513.3223,9045
1514.0380,8987
1514.7534,9003
1515.4689,8957
1516.1841,8979
1516.8992,8963
1517.6143,8923
1518.3291,8857
1519.0438,8894
1519.7584,8849
1520.4729,8863
1521.1873,8812
1521.9015,8838
1522.6155,8802
1523.3295,8809
1524.0433,8794
1524.7570,8807
1525.4706,8760
1526.1840,8775
1526.8973,8748
1527.6105,8812
1528.3235,8700
1529.0365,8760
1529.7493,8654
1530.4619,8746
1531.1744,8656
1531.8868,8693
1532.5991,8666
1533.3112,8682
1534.0232,8689
1534.7351,8675
1535.4468,8651
1536.1584,8653
1536.8699,8611
1537.5813,8569
1538.2925,8647
1539.0035,8668
1539.7146,8532
1540.4254,8571
1541.1361,8554
1541.8467,8601
1542.5571,8551
1543.2675,8597
1543.9777,8508
1544.6877,8617
1545.3976,8592
1546.1074,8525
1546.8171,8493
1547.5266,8564
1548.2361,8561
1548.9453,8511
1549.6545,8497
1550.3635,8524
1551.0724,8397
1551.7811,8474
1552.4899,8441
1553.1984,8522
1553.9067,8501
1554.6150,8476
1555.3231,8446
1556.0310,8495
1556.7389,8460
1557.4467,8446
1558.1543,8439
1558.8617,8433
1559.5691,8508
1560.2762,8415
1560.9834,8453
1561.6903,8458
1562.3972,8488
1563.1039,8374
1563.8104,8442
1564.5168,8453
1565.2233,8463
1565.9294,8413
1566.6355,8437
1567.3414,8460
1568.0472,8452
1568.7528,8366
1569.4584,8435
1570.1638,8378
1570.8691,8397
1571.5742,8403
1572.2793,8416
1572.9843,8458
1573.6890,8475
1574.3937,8449
1575.0981,8460
1575.8025,8532
1576.5068,8464
1577.2109,8469
1577.9149,8460
1578.6188,8467
1579.3225,8495
1580.0261,8419
1580.7296,8411
1581.4330,8473
1582.1362,8509
1582.8394,8462
1583.5424,8496
1584.2451,8504
1584.9479,8468
1585.6505,8507
1586.3529,8488
1587.0553,8568
1587.7574,8481
1588.4596,8530
1589.1615,8522
1589.8634,8569
1590.5651,8551
1591.2666,8528
1591.9680,8524
1592.6693,8630
1593.3706,8582
1594.0717,8623
1594.7726,8552
1595.4734,8598
1596.1741,8624
1596.8745,8594
1597.5750,8629
1598.2753,8576
1598.9755,8615
1599.6754,8586
1600.3754,8691
1601.0752,8672
1601.7748,8726
1602.4744,8633
1603.1737,8608
1603.8730,8682
1604.5721,8767
1605.2712,8725
1605.9701,8610
1606.6688,8666
1607.3674,8731
1608.0659,8834
1608.7644,8758
1609.4626,8756
1610.1608,8741
1610.8588,8755
1611.5566,8786
1612.2544,8890
1612.9520,8834
1613.6494,8766
1614.3468,8833
1615.0441,8861
1615.7412,8937
1616.4381,8825
1617.1350,8886
1617.8318,8850
1618.5283,8928
1619.2249,8881
1619.9211,8937
1620.6174,8909
1621.3135,8923
1622.0094,8933
1622.7053,8995
1623.4010,9008
1624.0966,8956
1624.7920,8992
1625.4874,8989
1626.1826,9053
1626.8777,9066
1627.5726,9070
1628.2675,9049
1628.9622,9110
1629.6567,9150
1630.3512,9146
1631.0455,9129
1631.7397,9111
1632.4337,9127
1633.1277,9148
1633.8215,9133
1634.5153,9093
1635.2087,9219
1635.9022,9213
1636.5956,9196
1637.2887,9246
1637.9818,9216
1638.6747,9304
1639.3676,9274
1640.0602,9252
1640.7527,9239
1641.4452,9298
1642.1375,9290
1642.8296,9256
1643.5217,9248
1644.2136,9318
1644.9054,9324
1645.5970,9280
1646.2886,9376
1646.9801,9321
1647.6714,9375
1648.3625,9427
1649.0536,9387
1649.7445,9420
1650.4353,9360
1651.1260,9437
1651.8164,9414
1652.5068,9397
1653.1971,9417
1653.8873,9436
1654.5774,9425
1655.2672,9518
1655.9570,9419
1656.6467,9518
1657.3362,9480
1658.0256,9476
1658.7150,9517
1659.4041,9494
1660.0931,9513
1660.7820,9546
1661.4708,9538
1662.1594,9557
1662.8480,9563
1663.5364,9548
1664.2247,9632
1664.9128,9542
1665.6008,9577
1666.2887,9589
1666.9766,9613
1667.6642,9668
1668.3517,9703
1669.0391,9649
1669.7264,9598
1670.4136,9633
1671.1006,9704
1671.7875,9571
1672.4742,9621
1673.1609,9705
1673.8474,9741
1674.5338,9714
1675.2201,9637
1675.9063,9732
1676.5923,9736
1677.2782,9769
1677.9640,9753
1678.6497,9756
1679.3351,9785
1680.0205,9764
1680.7058,9877
1681.3910,9822
1682.0760,9811
1682.7609,9769
1683.4457,9890
1684.1304,9868
1684.8148,9875
1685.4993,9911
1686.1836,9872
1686.8677,9853
1687.5518,9935
1688.2356,9884
1688.9194,9896
1689.6030,9933
1690.2866,9894
1690.9700,9945
1691.6533,9954
1692.3364,9938
1693.0195,9962
1693.7024,9996
1694.3853,10018
1695.0679,10034
1695.7504,9991
1696.4329,10021
1697.1151,9978
1697.7972,10031
1698.4794,10077
1699.1613,10089
1699.8430,10106
1700.5247,10108
1701.2063,10099
1701.8877,10086
1702.5690,10139
1703.2501,10166
1703.9312,10159
1704.6121,10215
1705.2930,10165
1705.9736,10187
1706.6542,10188
1707.3346,10225
1708.0149,10284
1708.6951,10229
1709.3751,10250
1710.0551,10343
1710.7349,10285
1711.4146,10309
1712.0941,10253
1712.7736,10278
1713.4529,10382
1714.1321,10352
1714.8112,10413
1715.4901,10368
1716.1689,10377
1716.8477,10339
1717.5261,10399
1718.2046,10413
1718.8829,10358
1719.5612,10456
1720.2393,10445
1720.9172,10448
1721.5950,10531
1722.2727,10578
1722.9503,10475
1723.6278,10536
1724.3052,10518
1724.9823,10607
1725.6594,10552
1726.3364,10521
1727.0133,10571
1727.6899,10546
1728.3666,10661
1729.0431,10632
1729.7194,10659
1730.3956,10571
1731.0718,10623
1731.7477,10679
1732.4236,10684
1733.0994,10686
1733.7749,10653
1734.4504,10734
1735.1259,10787
1735.8010,10708
1736.4762,10696
1737.1512,10745
1737.8260,10756
1738.5009,10765
1739.1754,10803
1739.8500,10871
1740.5244,10861
1741.1986,10868
1741.8728,10806
1742.5468,10828
1743.2207,10879
1743.8944,10906
1744.5681,10823
1745.2417,10915
1745.9150,10900
1746.5884,10954
1747.2615,10882
1747.9346,10949
1748.6074,10973
1749.2803,10925
1749.9529,10960
1750.6255,10957
1751.2979,11016
1751.9702,10907
1752.6423,11026
1753.3145,10974
1753.9865,11122
1754.6582,11052
1755.3300,10937
1756.0015,11021
1756.6730,11111
1757.3442,11071
1758.0155,11110
1758.6865,11025
1759.3575,11082
1760.0283,11023
1760.6991,11118
1761.3696,11041
1762.0402,11077
1762.7104,11076
1763.3807,11101
1764.0508,11074
1764.7208,11112
1765.3906,11111
1766.0604,11129
1766.7300,11141
1767.3995,11108
1768.0688,11161
1768.7382,11216
1769.4072,11150
1770.0763,11175
1770.7451,11138
1771.4139,11171
1772.0825,11205
1772.7511,11175
1773.4196,11148
1774.0878,11156
1774.7560,11222
1775.4240,11190
1776.0919,11226
1776.7596,11226
1777.4274,11158
1778.0950,11161
1778.7623,11153
1779.4297,11258
1780.0968,11137
1780.7639,11134
1781.4308,11140
1782.0977,11204
1782.7644,11298
1783.4309,11209
1784.0974,11161
1784.7638,11212
1785.4299,11090
1786.0961,11297
1786.7621,11166
1787.4279,11147
1788.0936,11187
1788.7593,11163
1789.4247,11136
1790.0901,11212
1790.7554,11246
1791.4204,11172
1792.0854,11200
1792.7504,11217
1793.4152,11240
1794.0797,11164
1794.7443,11167
1795.4087,11241
1796.0730,11230
1796.7371,11272
1797.4011,11173
1798.0651,11268
1798.7289,11182
1799.3926,11210
1800.0560,11247
1800.7195,11215
1801.3828,11186
1802.0460,11188
1802.7091,11147
1803.3721,11201
1804.0349,11173
1804.6976,11172
1805.3602,11263
1806.0227,11198
1806.6849,11203
1807.3472,11151
1808.0093,11202
1808.6713,11170
1809.3331,11200
1809.9949,11223
1810.6566,11118
1811.3181,11198
1811.9795,11279
1812.6407,11164
1813.3019,11158
1813.9629,11167
1814.6238,11125
1815.2845,11173
1815.9452,11170
1816.6058,11220
1817.2662,11146
1817.9265,11145
1818.5867,11171
1819.2467,11153
1819.9067,11162
1820.5665,11197
1821.2262,11125
1821.8857,11171
1822.5453,11121
1823.2046,11199
1823.8638,11233
1824.5229,11162
1825.1819,11138
1825.8408,11098
1826.4995,11202
1827.1581,11219
1827.8167,11174
1828.4750,11207
1829.1333,11129
1829.7914,11114
1830.4495,11197
1831.1074,11159
1831.7651,11195
1832.4229,11153
1833.0803,11157
1833.7378,11206
1834.3951,11108
1835.0522,11168
1835.7094,11126
1836.3663,11168
1837.0231,11192
1837.6798,11133
1838.3364,11209
1838.9929,11141
1839.6493,11135
1840.3054,11190
1840.9615,11172
1841.6176,11132
1842.2734,11127
1842.9292,11122
1843.5848,11207
1844.2404,11104
1844.8958,11148
1845.5510,11181
1846.2062,11074
1846.8612,11118
1847.5161,11166
1848.1709,11167
1848.8256,11143
1849.4802,11176
1850.1346,11197
1850.7889,11120
1851.4431,11205
1852.0973,11137
1852.7512,11102
1853.4050,11150
1854.0588,11108
1854.7124,11071
1855.3658,11150
1856.0193,11140
1856.6725,11165
1857.3257,11135
1857.9786,11108
1858.6316,11241
1859.2843,11056
1859.9370,11184
1860.5895,11144
1861.2419,11046
1861.8943,11134
1862.5464,11107
1863.1985,11100
1863.8505,11097
1864.5023,11071
1865.1541,11094
1865.8055,11042
1866.4570,11052
1867.1084,11142
1867.7596,11007
1868.4108,11057
1869.0618,11049
1869.7126,11086
1870.3634,11131
1871.0140,11105
1871.6646,11004
1872.3149,11023
1872.9653,10995
1873.6155,11080
1874.2655,11022
1874.9154,11035
1875.5653,11020
1876.2150,10962
1876.8645,11043
1877.5140,11043
1878.1633,10981
1878.8125,11045
1879.4617,10956
1880.1106,11070
1880.7595,11029
1881.4083,11058
1882.0569,10988
1882.7054,10953
1883.3539,10912
1884.0021,11011
1884.6503,11013
1885.2983,10976
1885.9463,10983
1886.5940,10966
1887.2417,10931
1887.8893,10951
1888.5367,10909
1889.1841,10949
1889.8313,10960
1890.4784,10937
1891.1254,10951
1891.7723,10906
1892.4191,10924
1893.0657,10950
1893.7122,10866
1894.3585,10910
1895.0049,10895
1895.6510,10889
1896.2971,10898
1896.9430,10884
1897.5887,10850
1898.2345,10957
1898.8800,10890
1899.5255,10906
1900.1709,10878
1900.8160,10816
1901.4612,10897
1902.1062,10915
1902.7511,10855
1903.3958,10827
1904.0404,10846
1904.6849,10760
1905.3293,10829
1905.9736,10840
1906.6178,10826
1907.2618,10838
1907.9058,10726
1908.5496,10876
1909.1932,10794
1909.8369,10805
1910.4803,10826
1911.1237,10747
1911.7670,10808
1912.4100,10727
1913.0530,10737
1913.6959,10797
1914.3386,10758
1914.9813,10796
1915.6238,10809
1916.2662,10740
1916.9086,10729
1917.5507,10783
1918.1927,10715
1918.8347,10811
1919.4766,10682
1920.1183,10758
1920.7599,10756
1921.4014,10795
1922.0427,10774
1922.6840,10726
1923.3251,10695
1923.9661,10672
1924.6069,10720
1925.2477,10730
1925.8884,10717
1926.5289,10663
1927.1693,10695
1927.8097,10796
1928.4498,10780
1929.0900,10718
1929.7299,10638
1930.3698,10788
1931.0095,10708
1931.6490,10701
1932.2886,10745
1932.9280,10702
1933.5673,10726
1934.2064,10702
1934.8453,10674
1935.4843,10787
1936.1230,10684
1936.7618,10659
1937.4004,10676
1938.0388,10655
1938.6771,10709
1939.3153,10711
1939.9535,10672
1940.5914,10684
1941.2292,10742
1941.8671,10752
1942.5046,10729
1943.1422,10740
1943.7797,10747
1944.4169,10670
1945.0541,10700
1945.6912,10718
1946.3281,10680
1946.9648,10810
1947.6016,10690
1948.2382,10765
1948.8746,10760
1949.5110,10732
1950.1473,10772
1950.7834,10743
1951.4194,10760
1952.0553,10799
1952.6912,10683
1953.3268,10796
1953.9623,10835
1954.5978,10691
1955.2330,10874
1955.8683,10769
1956.5034,10841
1957.1383,10880
1957.7732,10753
1958.4080,10774
1959.0426,10806
1959.6771,10830
1960.3115,10902
1960.9458,10834
1961.5800,10799
1962.2140,10857
1962.8479,10859
1963.4817,10933
1964.1155,10898
1964.7490,10883
1965.3824,10907
1966.0159,10867
1966.6490,10859
1967.2822,10897
1967.9153,10781
1968.5481,10884
1969.1809,10861
1969.8136,10870
1970.4462,10965
1971.0786,10954
1971.7109,10975
1972.3431,10971
1972.9752,10906
1973.6072,10975
1974.2390,10931
1974.8707,10955
1975.5024,10989
1976.1339,10949
1976.7654,10979
1977.3966,10893
1978.0278,10969
1978.6588,11023
1979.2898,10971
1979.9207,10982
1980.5514,11061
1981.1819,10964
1981.8124,11087
1982.4427,11014
1983.0730,11010
1983.7031,11055
1984.3333,11050
1984.9631,11056
1985.5929,11096
1986.2225,11040
1986.8522,11065
1987.4816,10997
1988.1110,11000
1988.7401,11118
1989.3693,11127
1989.9983,11073
1990.6272,11131
1991.2559,11031
1991.8845,11122
1992.5131,11140
1993.1415,11137
1993.7698,11135
1994.3981,11142
1995.0261,11108
1995.6541,11110
1996.2819,11156
1996.9097,11130
1997.5372,11168
1998.1648,11097
1998.7921,11195
1999.4194,11053
2000.0466,11223
2000.6737,11225
2001.3005,11173
2001.9274,11143
2002.5541,11111
2003.1807,11207
2003.8073,11246
2004.4336,11115
2005.0598,11243
2005.6859,11227
2006.3120,11171
2006.9379,11191
2007.5637,11183
2008.1893,11226
2008.8149,11174
2009.4404,11174
2010.0657,11201
2010.6909,11191
2011.3160,11267
2011.9410,11216
2012.5659,11209
2013.1907,11227
2013.8154,11231
2014.4399,11229
2015.0643,11228
2015.6887,11249
2016.3129,11213
2016.9370,11255
2017.5609,11206
2018.1848,11352
2018.8086,11276
2019.4323,11191
2020.0557,11260
2020.6791,11231
2021.3024,11317
2021.9257,11296
2022.5487,11200
2023.1716,11293
2023.7944,11275
2024.4172,11221
2025.0398,11350
2025.6624,11276
2026.2847,11221
2026.9070,11264
2027.5292,11196
2028.1512,11234
2028.7731,11283
2029.3949,11287
2030.0166,11363
2030.6383,11263
2031.2598,11287
2031.8811,11313
2032.5023,11310
2033.1235,11354
2033.7445,11396
2034.3655,11236
2034.9862,11294
2035.6069,11299
2036.2275,11270
2036.8480,11501
2037.4684,11292
2038.0886,11415
2038.7087,11355
2039.3287,11322
2039.9486,11463
2040.5684,11301
2041.1881,11328
2041.8076,11439
2042.4271,11345
2043.0464,11358
2043.6656,11479
2044.2848,11328
2044.9038,11386
2045.5227,11407
2046.1415,11412
2046.7601,11533
2047.3787,11340
2047.9971,11401
2048.6155,11482
2049.2336,11300
2049.8518,11475
2050.4697,11427
2051.0876,11448
2051.7053,11435
2052.3230,11447
2052.9404,11411
2053.5579,11446
2054.1753,11392
2054.7925,11498
2055.4094,11542
2056.0266,11378
2056.6433,11496
2057.2600,11484
2057.8767,11480
2058.4932,11532
2059.1096,11509
2059.7261,11496
2060.3420,11546
2060.9583,11430
2061.5742,11540
2062.1899,11570
2062.8059,11504
2063.4214,11549
2064.0369,11490
2064.6523,11635
2065.2676,11598
2065.8828,11498
2066.4978,11611
2067.1128,11534
2067.7278,11537
2068.3423,11638
2068.9570,11528
2069.5715,11564
2070.1860,11619
2070.8003,11568
2071.4143,11663
2072.0283,11645
2072.6423,11653
2073.2561,11751
2073.8699,11676
2074.4836,11569
2075.0972,11677
2075.7104,11658
2076.3237,11667
2076.9368,11752
2077.5500,11580
2078.1628,11735
2078.7756,11670
2079.3884,11700
2080.0010,11829
2080.6135,11672
2081.2258,11671
2081.8381,11747
2082.4504,11638
2083.0625,11796
2083.6743,11778
2084.2861,11723
2084.8979,11823
2085.5095,11709
2086.1208,11745
2086.7324,11866
2087.3435,11772
2087.9548,11854
2088.5659,11768
2089.1768,11703
2089.7876,11847
2090.3982,11878
2091.0088,11891
2091.6194,11950
2092.2297,11794
2092.8401,11830
2093.4502,11907
2094.0603,11864
2094.6702,11952
2095.2800,11906
2095.8896,11841
2096.4993,11936
2097.1089,11930
2097.7183,11883
2098.3274,11919
2098.9365,11911
2099.5457,11980
2100.1545,12014
2100.7634,11886
2101.3721,11969
2101.9807,11825
2102.5894,11961
2103.1975,11993
2103.8059,11961
2104.4141,12025
2105.0222,12003
2105.6301,11961
2106.2378,12005
2106.8457,11960
2107.4531,11927
2108.0608,12032
2108.6680,12027
2109.2754,11958
2109.8826,12019
2110.4895,11979
2111.0964,12023
2111.7034,12048
2112.3101,12051
2112.9167,12050
2113.5232,11989
2114.1296,11978
2114.7358,12040
2115.3420,11980
2115.9480,11987
2116.5540,11992
2117.1599,12083
2117.7656,12005
2118.3711,12092
2118.9768,12084
2119.5820,12083
2120.1875,12042
2120.7925,12026
2121.3977,12054
2122.0027,11982
2122.6074,11992
2123.2122,12126
2123.8169,12062
2124.4214,12105
2125.0256,12064
2125.6299,11937
2126.2341,12058
2126.8384,12071
2127.4421,12021
2128.0461,12125
2128.6499,12004
2129.2534,12086
2129.8569,12139
2130.4604,12010
2131.0637,12188
2131.6670,12058
2132.2700,12121
2132.8730,12127
2133.4758,12055
2134.0786,12153
2134.6812,12228
2135.2837,12087
2135.8862,12078
2136.0381,12072.5
2136.6995,12041.5
2137.3608,12128.5
2138.0220,12039.5
2138.6831,12117.5
2139.3440,12139.5
2140.0049,12092.5
2140.6655,12069.5
2141.3262,12146.5
2141.9866,12116.5
2142.6470,12108.5
2143.3071,12051.5
2143.9673,12156.5
2144.6274,12095.5
2145.2871,12032.5
2145.9470,12139.5
2146.6064,12077.5
2147.2661,12081.5
2147.9253,12133.5
2148.5847,12061.5
2149.2439,12141.5
2149.9028,12157.5
2150.5618,12141.5
2151.2205,12134.5
2151.8792,12051.5
2152.5376,12158.5
2153.1960,12105.5
2153.8542,12126.5
2154.5125,12253.5
2155.1704,12077.5
2155.8284,12076.5
2156.4861,12098.5
2157.1438,12121.5
2157.8013,12190.5
2158.4587,12153.5
2159.1160,12117.5
2159.7732,12096.5
2160.4304,12062.5
2161.0872,12089.5
2161.7441,12038.5
2162.4009,12070.5
2163.0574,12146.5
2163.7139,11980.5
2164.3701,12111.5
2165.0264,12107.5
2165.6824,12125.5
2166.3384,12170.5
2166.9941,11997.5
2167.6499,12094.5
2168.3057,11991.5
2168.9612,12180.5
2169.6165,12209.5
2170.2717,12069.5
2170.9268,12113.5
2171.5818,12156.5
2172.2366,12148.5
2172.8914,12084.5
2173.5461,12024.5
2174.2007,12059.5
2174.8550,11939.5
2175.5093,12071.5
2176.1633,12103.5
2176.8174,12149.5
2177.4714,12089.5
2178.1252,12138.5
2178.7788,12081.5
2179.4324,12064.5
2180.0857,12232.5
2180.7390,12047.5
2181.3923,12116.5
2182.0454,12130.5
2182.6982,12072.5
2183.3511,12169.5
2184.0039,12187.5
2184.6565,12127.5
2185.3088,12127.5
2185.9612,11991.5
2186.6135,12114.5
2187.2656,12080.5
2187.9175,12107.5
2188.5693,12141.5
2189.2212,12056.5
2189.8728,12129.5
2190.5242,12149.5
2191.1755,12082.5
2191.8269,12142.5
2192.4780,12112.5
2193.1289,12109.5
2193.7800,12150.5
2194.4307,12016.5
2195.0813,12161.5
2195.7319,12109.5
2196.3823,12057.5
2197.0327,12055.5
2197.6829,12103.5
2198.3328,12169.5
2198.9827,12133.5
2199.6326,12010.5
2200.2822,12151.5
2200.9319,12083.5
2201.5813,12121.5
2202.2307,12108.5
2202.8799,12085.5
2203.5291,12081.5
2204.1780,12052.5
2204.8269,11983.5
2205.4756,12152.5
2206.1243,12113.5
2206.7727,12108.5
2207.4211,12069.5
2208.0693,12071.5
2208.7175,12109.5
2209.3655,12081.5
2210.0134,12173.5
2210.6611,12076.5
2211.3088,12007.5
2211.9563,12068.5
2212.6038,11993.5
2213.2510,12123.5
2213.8982,12142.5
2214.5452,12006.5
2215.1921,12097.5
2215.8391,12094.5
2216.4858,12132.5
2217.1323,12045.5
2217.7788,12107.5
2218.4250,12115.5
2219.0713,12093.5
2219.7175,12016.5
2220.3635,12156.5
2221.0093,12107.5
2221.6550,12084.5
2222.3008,12024.5
2222.9463,12113.5
2223.5916,12002.5
2224.2368,12061.5
2224.8821,12030.5
2225.5271,12132.5
2226.1719,12055.5
2226.8167,12054.5
2227.4614,12011.5
2228.1060,12064.5
2228.7505,12062.5
2229.3948,12092.5
2230.0388,11981.5
2230.6831,12013.5
2231.3269,12123.5
2231.9707,12103.5
2232.6145,12193.5
2233.2581,11934.5
2233.9016,12059.5
2234.5449,12103.5
2235.1882,12017.5
2235.8313,12110.5
2236.4744,12050.5
2237.1172,11970.5
2237.7600,12094.5
2238.4026,12095.5
2239.0452,12020.5
2239.6877,12108.5
2240.3298,12047.5
2240.9722,12052.5
2241.6143,12005.5
2242.2561,12062.5
2242.8979,12116.5
2243.5396,12081.5
2244.1812,12036.5
2244.8228,11979.5
2245.4641,12080.5
2246.1052,12022.5
2246.7463,12011.5
2247.3875,11953.5
2248.0283,11983.5
2248.6689,11999.5
2249.3096,12013.5
2249.9502,12092.5
2250.5906,11969.5
2251.2310,11991.5
2251.8711,12003.5
2252.5110,11865.5
2253.1509,11994.5
2253.7908,12032.5
2254.4304,11978.5
2255.0701,11898.5
2255.7095,11930.5
2256.3489,12036.5
2256.9880,11996.5
2257.6272,11935.5
2258.2661,12045.5
2258.9050,11929.5
2259.5437,11924.5
2260.1824,11908.5
2260.8208,11987.5
2261.4592,11872.5
2262.0977,11972.5
2262.7358,11992.5
2263.3738,11943.5
2264.0117,11955.5
2264.6494,12047.5
2265.2871,11996.5
2265.9248,11966.5
2266.5623,11881.5
2267.1995,11904.5
2267.8367,11908.5
2268.4739,11901.5
2269.1108,11901.5
2269.7478,11925.5
2270.3845,11792.5
2271.0210,11849.5
2271.6575,11984.5
2272.2939,12000.5
2272.9302,11896.5
2273.5664,11834.5
2274.2024,11912.5
2274.8384,11895.5
2275.4741,11876.5
2276.1099,11939.5
2276.7454,11885.5
2277.3809,11848.5
2278.0161,11924.5
2278.6514,11875.5
2279.2864,11833.5
2279.9214,11889.5
2280.5564,11849.5
2281.1912,11935.5
2281.8257,11845.5
2282.4602,11782.5
2283.0947,11761.5
2283.7290,11957.5
2284.3630,11848.5
2284.9971,11890.5
2285.6311,11761.5
2286.2649,11801.5
2286.8984,11869.5
2287.5322,11895.5
2288.1655,11853.5
2288.7988,11823.5
2289.4321,11863.5
2290.0652,11852.5
2290.6982,11840.5
2291.3311,11819.5
2291.9639,11829.5
2292.5964,11818.5
2293.2290,11835.5
2293.8613,11785.5
2294.4937,11826.5
2295.1260,11846.5
2295.7581,11738.5
2296.3899,11824.5
2297.0217,11887.5
2297.6533,11865.5
2298.2849,11908.5
2298.9165,11766.5
2299.5479,11789.5
2300.1790,11822.5
2300.8101,11892.5
2301.4412,11883.5
2302.0720,11828.5
2302.7029,11897.5
2303.3335,11804.5
2303.9641,11852.5
2304.5945,11802.5
2305.2249,11834.5
2305.8550,11842.5
2306.4851,11804.5
2307.1150,11824.5
2307.7449,11817.5
2308.3745,11850.5
2309.0042,11959.5
2309.6335,11825.5
2310.2629,11810.5
2310.8923,11763.5
2311.5215,11805.5
2312.1504,11865.5
2312.7793,11847.5
2313.4082,11865.5
2314.0369,11790.5
2314.6653,11776.5
2315.2939,11865.5
2315.9221,11852.5
2316.5503,11832.5
2317.1785,11839.5
2317.8064,11797.5
2318.4343,11827.5
2319.0620,11812.5
2319.6897,11859.5
2320.3171,11867.5
2320.9446,11760.5
2321.5718,11793.5
2322.1990,11829.5
2322.8262,11819.5
2323.4531,11804.5
2324.0798,11904.5
2324.7065,11857.5
2325.3333,11777.5
2325.9597,11763.5
2326.5859,11802.5
2327.2122,11775.5
2327.8384,11884.5
2328.4644,11725.5
2329.0903,11801.5
2329.7161,11804.5
2330.3418,11837.5
2330.9673,11903.5
2331.5928,11826.5
2332.2180,11835.5
2332.8433,11855.5
2333.4683,11837.5
2334.0933,11898.5
2334.7180,11877.5
2335.3428,11798.5
2335.9675,11883.5
2336.5920,11845.5
2337.2163,11801.5
2337.8406,11871.5
2338.4648,11960.5
2339.0889,11788.5
2339.7129,11842.5
2340.3367,11849.5
2340.9602,11864.5
2341.5840,11888.5
2342.2073,11909.5
2342.8308,11852.5
2343.4539,11739.5
2344.0771,11855.5
2344.7002,11974.5
2345.3230,11932.5
2345.9458,11952.5
2346.5684,11877.5
2347.1909,11874.5
2347.8135,11807.5
2348.4358,11920.5
2349.0579,11969.5
2349.6799,11841.5
2350.3020,11803.5
2350.9238,11861.5
2351.5457,11824.5
2352.1672,11873.5
2352.7888,11942.5
2353.4102,11777.5
2354.0315,11885.5
2354.6526,11850.5
2355.2737,11833.5
2355.8945,11910.5
2356.5154,11900.5
2357.1362,11917.5
2357.7568,11886.5
2358.3772,11822.5
2358.9976,11861.5
2359.6179,11830.5
2360.2380,11798.5
2360.8579,11854.5
2361.4780,11860.5
2362.0977,11828.5
2362.7173,11946.5
2363.3369,11907.5
2363.9563,11858.5
2364.5757,11814.5
2365.1951,11899.5
2365.8140,11845.5
2366.4331,11895.5
2367.0520,11968.5
2367.6707,11819.5
2368.2893,11975.5
2368.9080,11888.5
2369.5264,11878.5
2370.1445,11852.5
2370.7627,11894.5
2371.3809,11895.5
2371.9988,11926.5
2372.6167,11882.5
2373.2344,11854.5
2373.8521,11840.5
2374.4695,11946.5
2375.0869,11840.5
2375.7041,11943.5
2376.3213,11854.5
2376.9385,11898.5
2377.5554,11894.5
2378.1721,11878.5
2378.7888,11883.5
2379.4055,11846.5
2380.0220,11896.5
2380.6384,11799.5
2381.2546,11852.5
2381.8706,11894.5
2382.4868,11931.5
2383.1025,11884.5
2383.7185,11936.5
2384.3342,11821.5
2384.9497,11885.5
2385.5652,11885.5
2386.1804,11883.5
2386.7957,11836.5
2387.4109,11807.5
2388.0259,11899.5
2388.6406,11754.5
2389.2556,11925.5
2389.8701,11851.5
2390.4846,11883.5
2391.0991,11847.5
2391.7134,11805.5
2392.3276,11867.5
2392.9417,11877.5
2393.5557,11899.5
2394.1697,11786.5
2394.7834,11862.5
2395.3970,11796.5
2396.0105,11871.5
2396.6240,11959.5
2397.2373,11855.5
2397.8503,11871.5
2398.4634,11869.5
2399.0764,11865.5
2399.6892,11832.5
2400.3020,11795.5
2400.9146,11869.5
2401.5271,11859.5
2402.1394,11887.5
2402.7517,11763.5
2403.3640,11881.5
2403.9761,11889.5
2404.5879,11878.5
2405.1997,11862.5
2405.8115,11856.5
2406.4231,11850.5
2407.0344,11861.5
2407.6460,11945.5
2408.2571,11826.5
2408.8684,11869.5
2409.4792,11819.5
2410.0903,11907.5
2410.7012,11886.5
2411.3118,11871.5
2411.9224,11918.5
2412.5327,11883.5
2413.1431,11924.5
2413.7534,11838.5
2414.3635,11913.5
2414.9736,11919.5
2415.5835,11867.5
2416.1934,11839.5
2416.8030,11871.5
2417.4126,11898.5
2418.0220,11806.5
2418.6313,11843.5
2419.2405,11798.5
2419.8496,11911.5
2420.4587,11944.5
2421.0676,11879.5
2421.6763,11887.5
2422.2849,11858.5
2422.8936,11866.5
2423.5020,11843.5
2424.1104,11760.5
2424.7185,11824.5
2425.3267,11961.5
2425.9346,11886.5
2426.5425,11857.5
2427.1501,11924.5
2427.7578,11848.5
2428.3655,11885.5
2428.9729,11837.5
2429.5801,11887.5
2430.1873,11932.5
2430.7944,11915.5
2431.4014,11795.5
2432.0083,11868.5
2432.6150,11827.5
2433.2217,11955.5
2433.8281,11855.5
2434.4346,11949.5
2435.0410,11830.5
2435.6472,11883.5
2436.2532,11902.5
2436.8591,11909.5
2437.4651,11931.5
2438.0708,11771.5
2438.6765,11945.5
2439.2820,11858.5
2439.8872,11860.5
2440.4927,11836.5
2441.0979,11968.5
2441.7029,12009.5
2442.3079,11879.5
2442.9126,11906.5
2443.5173,11979.5
2444.1221,11913.5
2444.7266,11986.5
2445.3311,11926.5
2445.9353,11918.5
2446.5393,11872.5
2447.1436,11965.5
2447.7476,11913.5
2448.3513,11895.5
2448.9551,11920.5
2449.5586,11928.5
2450.1621,11907.5
2450.7656,11913.5
2451.3689,11973.5
2451.9719,11934.5
2452.5750,11946.5
2453.1780,11910.5
2453.7808,11959.5
2454.3835,11969.5
2454.9861,11984.5
2455.5886,11974.5
2456.1912,11923.5
2456.7935,11937.5
2457.3955,11946.5
2457.9976,11959.5
2458.5996,11989.5
2459.2014,12029.5
2459.8030,11955.5
2460.4048,12001.5
2461.0061,11947.5
2461.6077,11998.5
2462.2087,12054.5
2462.8101,12020.5
2463.4111,12021.5
2464.0120,12045.5
2464.6128,11933.5
2465.2136,12007.5
2465.8142,11990.5
2466.4146,12009.5
2467.0151,12005.5
2467.6152,12074.5
2468.2156,11999.5
2468.8157,11987.5
2469.4155,12032.5
2470.0154,12094.5
2470.6150,12021.5
2471.2146,11939.5
2471.8142,12057.5
2472.4136,11954.5
2473.0129,11977.5
2473.6121,12038.5
2474.2109,12058.5
2474.8101,11922.5
2475.4089,11932.5
2476.0076,12065.5
2476.6062,12076.5
2477.2046,12022.5
2477.8030,12019.5
2478.4014,11991.5
2478.9995,11968.5
2479.5977,11989.5
2480.1956,11998.5
2480.7935,12024.5
2481.3911,11994.5
2481.9888,12052.5
2482.5862,12049.5
2483.1836,12106.5
2483.7808,11978.5
2484.3782,12063.5
2484.9751,12058.5
2485.5720,11989.5
2486.1689,12116.5
2486.7656,12035.5
2487.3623,12053.5
2487.9587,12037.5
2488.5552,12036.5
2489.1514,12035.5
2489.7476,11975.5
2490.3438,12063.5
2490.9397,12013.5
2491.5356,12108.5
2492.1313,12145.5
2492.7268,12028.5
2493.3225,12077.5
2493.9177,12039.5
2494.5132,12063.5
2495.1084,12095.5
2495.7034,12055.5
2496.2983,12053.5
2496.8933,12108.5
2497.4880,12087.5
2498.0825,12059.5
2498.6770,12092.5
2499.2715,12138.5
2499.8657,11974.5
2500.4600,11999.5
2501.0542,12033.5
2501.6482,11995.5
2502.2419,12034.5
2502.8357,12111.5
2503.4294,12051.5
2504.0229,11991.5
2504.6162,12127.5
2505.2097,12079.5
2505.8027,12111.5
2506.3960,12176.5
2506.9890,12072.5
2507.5818,12010.5
2508.1746,12035.5
2508.7673,12016.5
2509.3599,12064.5
2509.9521,12020.5
2510.5447,12089.5
2511.1367,11986.5
2511.7290,12067.5
2512.3208,12091.5
2512.9128,12048.5
2513.5046,12117.5
2514.0962,12089.5
2514.6877,12073.5
2515.2793,12026.5
2515.8706,12038.5
2516.4619,12083.5
2517.0530,12110.5
2517.6440,12050.5
2518.2349,12088.5
2518.8257,12057.5
2519.4163,12051.5
2520.0068,12106.5
2520.5974,12109.5
2521.1877,12099.5
2521.7781,12185.5
2522.3682,11989.5
2522.9583,12072.5
2523.5481,12097.5
2524.1379,12086.5
2524.7275,12060.5
2525.3171,12094.5
2525.9067,11990.5
2526.4961,12051.5
2527.0852,12060.5
2527.6746,12018.5
2528.2634,12056.5
2528.8525,12091.5
2529.4412,12086.5
2530.0300,12014.5
2530.6187,12067.5
2531.2070,12085.5
2531.7954,12128.5
2532.3838,12077.5
2532.9719,12002.5
2533.5601,12066.5
2534.1479,12075.5
2534.7358,12110.5
2535.3235,12082.5
2535.9111,12082.5
2536.4988,12033.5
2537.0862,12108.5
2537.6733,12058.5
2538.2607,12130.5
2538.8477,12035.5
2539.4348,12128.5
2540.0215,12033.5
2540.6084,12099.5
2541.1951,12142.5
2541.7815,12068.5
2542.3679,12151.5
2542.9543,12214.5
2543.5405,12166.5
2544.1267,12070.5
2544.7126,12191.5
2545.2986,12152.5
2545.8843,12172.5
2546.4700,12162.5
2547.0554,12187.5
2547.6409,12107.5
2548.2263,12123.5
2548.8115,12144.5
2549.3967,12100.5
2549.9817,12184.5
2550.5667,12219.5
2551.1514,12084.5
2551.7361,12150.5
2552.3208,12134.5
2552.9053,12176.5
2553.4895,12158.5
2554.0737,12154.5
2554.6580,12246.5
2555.2419,12159.5
2555.8259,12169.5
2556.4099,12234.5
2556.9937,12184.5
2557.5771,12210.5
2558.1606,12231.5
2558.7441,12186.5
2559.3274,12235.5
2559.9106,12209.5
2560.4937,12311.5
2561.0767,12199.5
2561.6594,12247.5
2562.2422,12217.5
2562.8247,12197.5
2563.4075,12297.5
2563.9897,12329.5
2564.5720,12239.5
2565.1543,12243.5
2565.7363,12218.5
2566.3184,12146.5
2566.9004,12270.5
2567.4822,12281.5
2568.0637,12276.5
2568.6453,12251.5
2569.2268,12359.5
2569.8081,12257.5
2570.3894,12260.5
2570.9705,12357.5
2571.5515,12334.5
2572.1323,12328.5
2572.7131,12257.5
2573.2939,12230.5
2573.8745,12228.5
2574.4551,12293.5
2575.0354,12375.5
2575.6157,12375.5
2576.1958,12255.5
2576.7759,12346.5
2577.3557,12378.5
2577.9355,12341.5
2578.5154,12451.5
2579.0950,12327.5
2579.6746,12452.5
2580.2539,12419.5
2580.8333,12285.5
2581.4124,12393.5
2581.9915,12370.5
2582.5706,12405.5
2583.1494,12463.5
2583.7283,12380.5
2584.3069,12406.5
2584.8853,12369.5
2585.4639,12399.5
2586.0422,12413.5
2586.6204,12451.5
2587.1985,12415.5
2587.7766,12365.5
2588.3545,12460.5
2588.9321,12496.5
2589.5100,12421.5
2590.0874,12460.5
2590.6650,12443.5
2591.2424,12399.5
2591.8196,12442.5
2592.3967,12422.5
2592.9739,12517.5
2593.5508,12500.5
2594.1277,12464.5
2594.7043,12364.5
2595.2810,12503.5
2595.8574,12460.5
2596.4338,12507.5
2597.0103,12510.5
2597.5864,12492.5
2598.1626,12404.5
2598.7385,12528.5
2599.3145,12455.5
2599.8901,12581.5
2600.4658,12533.5
2601.0413,12545.5
2601.6167,12505.5
2602.1921,12575.5
2602.7673,12479.5
2603.3425,12633.5
2603.9175,12550.5
2604.4924,12547.5
2605.0671,12511.5
2605.6418,12516.5
2606.2166,12542.5
2606.7910,12493.5
2607.3655,12570.5
2607.9397,12601.5
2608.5139,12592.5
2609.0879,12549.5
2609.6619,12562.5
2610.2356,12515.5
2610.8096,12524.5
2611.3831,12685.5
2611.9565,12522.5
2612.5300,12584.5
2613.1033,12653.5
2613.6765,12604.5
2614.2498,12578.5
2614.8228,12686.5
2615.3955,12663.5
2615.9683,12580.5
2616.5410,12612.5
2617.1135,12693.5
2617.6860,12668.5
2618.2583,12562.5
2618.8306,12696.5
2619.4028,12606.5
2619.9749,12618.5
2620.5469,12595.5
2621.1187,12534.5
2621.6904,12685.5
2622.2620,12642.5
2622.8335,12691.5
2623.4048,12609.5
2623.9761,12637.5
2624.5474,12564.5
2625.1184,12705.5
2625.6895,12717.5
2626.2603,12685.5
2626.8311,12749.5
2627.4019,12632.5
2627.9724,12587.5
2628.5427,12594.5
2629.1130,12661.5
2629.6833,12681.5
2630.2534,12682.5
2630.8235,12577.5
2631.3933,12693.5
2631.9631,12680.5
2632.5330,12711.5
2633.1025,12706.5
2633.6721,12722.5
2634.2415,12655.5
2634.8108,12624.5
2635.3799,12676.5
2635.9490,12690.5
2636.5181,12650.5
2637.0869,12750.5
2637.6555,12589.5
2638.2241,12645.5
2638.7927,12682.5
2639.3613,12624.5
2639.9294,12637.5
2640.4978,12755.5
2641.0659,12663.5
2641.6340,12774.5
2642.2019,12698.5
2642.7698,12617.5
2643.3374,12701.5
2643.9050,12714.5
2644.4724,12643.5
2645.0398,12721.5
2645.6072,12689.5
2646.1743,12700.5
2646.7415,12695.5
2647.3083,12801.5
2647.8752,12646.5
2648.4419,12772.5
2649.0085,12733.5
2649.5752,12690.5
2650.1416,12768.5
2650.7080,12729.5
2651.2742,12702.5
2651.8403,12726.5
2652.4063,12684.5
2652.9722,12691.5
2653.5381,12836.5
2654.1038,12683.5
2654.6694,12676.5
2655.2349,12788.5
2655.8003,12744.5
2656.3655,12817.5
2656.9307,12770.5
2657.4958,12734.5
2658.0608,12698.5
2658.6255,12806.5
2659.1904,12746.5
2659.7549,12704.5
2660.3196,12747.5
2660.8840,12706.5
2661.4482,12739.5
2662.0125,12856.5
2662.5767,12703.5
2663.1406,12709.5
2663.7046,12703.5
2664.2686,12715.5
2664.8323,12761.5
2665.3958,12854.5
2665.9592,12716.5
2666.5227,12825.5
2667.0859,12777.5
2667.6492,12648.5
2668.2122,12783.5
2668.7751,12736.5
2669.3381,12786.5
2669.9009,12775.5
2670.4636,12812.5
2671.0261,12675.5
2671.5886,12740.5
2672.1509,12827.5
2672.7131,12757.5
2673.2754,12800.5
2673.8374,12715.5
2674.3992,12654.5
2674.9612,12819.5
2675.5227,12734.5
2676.0845,12724.5
2676.6460,12651.5
2677.2073,12792.5
2677.7686,12653.5
2678.3298,12748.5
2678.8909,12757.5
2679.4519,12699.5
2680.0129,12830.5
2680.5737,12774.5
2681.1343,12737.5
2681.6948,12749.5
2682.2554,12713.5
2682.8157,12729.5
2683.3760,12785.5
2683.9360,12764.5
2684.4961,12743.5
2685.0562,12729.5
2685.6160,12715.5
2686.1758,12693.5
2686.7354,12744.5
2687.2949,12742.5
2687.8542,12695.5
2688.4136,12875.5
2688.9729,12713.5
2689.5320,12668.5
2690.0911,12849.5
2690.6499,12759.5
2691.2087,12711.5
2691.7673,12741.5
2692.3259,12823.5
2692.8845,12767.5
2693.4429,12807.5
2694.0012,12846.5
2694.5593,12719.5
2695.1174,12753.5
2695.6755,12754.5
2696.2334,12692.5
2696.7910,12810.5
2697.3489,12692.5
2697.9063,12649.5
2698.4639,12772.5
2699.0212,12728.5
2699.5784,12688.5
2700.1355,12774.5
2700.6926,12721.5
2701.2495,12765.5
2701.8064,12797.5
2702.3630,12715.5
2702.9197,12751.5
2703.4763,12808.5
2704.0327,12621.5
2704.5889,12688.5
2705.1453,12804.5
2705.7014,12754.5
2706.2573,12717.5
2706.8132,12813.5
2707.3691,12712.5
2707.9248,12710.5
2708.4802,12797.5
2709.0359,12842.5
2709.5913,12792.5
2710.1465,12802.5
2710.7017,12662.5
2711.2568,12746.5
2711.8118,12743.5
2712.3667,12714.5
2712.9214,12708.5
2713.4761,12767.5
2714.0305,12646.5
2714.5850,12680.5
2715.1394,12819.5
2715.6936,12692.5
2716.2478,12759.5
2716.8018,12840.5
2717.3557,12644.5
2717.9097,12643.5
2718.4634,12737.5
2719.0171,12718.5
2719.5706,12663.5
2720.1240,12752.5
2720.6772,12718.5
2721.2305,12630.5
2721.7837,12716.5
2722.3367,12690.5
2722.8896,12666.5
2723.4424,12820.5
2723.9951,12737.5
2724.5476,12719.5
2725.1001,12786.5
2725.6526,12677.5
2726.2048,12671.5
2726.7571,12849.5
2727.3091,12706.5
2727.8611,12643.5
2728.4131,12745.5
2728.9648,12618.5
2729.5164,12608.5
2730.0681,12735.5
2730.6196,12700.5
2731.1709,12676.5
2731.7222,12743.5
2732.2734,12668.5
2732.8245,12624.5
2733.3752,12790.5
2733.9263,12722.5
2734.4771,12730.5
2735.0276,12735.5
2735.5781,12598.5
2736.1287,12669.5
2736.6790,12670.5
2737.2292,12724.5
2737.7793,12664.5
2738.3293,12713.5
2738.8794,12683.5
2739.4292,12587.5
2739.9790,12781.5
2740.5286,12623.5
2741.0781,12597.5
2741.6274,12741.5
2742.1768,12637.5
2742.7261,12557.5
2743.2751,12653.5
2743.8242,12594.5
2744.3730,12573.5
2744.9219,12647.5
2745.4705,12575.5
2746.0193,12595.5
2746.5676,12647.5
2747.1160,12589.5
2747.6643,12561.5
2748.2126,12698.5
2748.7607,12624.5
2749.3086,12541.5
2749.8564,12543.5
2750.4043,12621.5
2750.9519,12543.5
2751.4995,12661.5
2752.0471,12685.5
2752.5945,12610.5
2753.1418,12651.5
2753.6890,12630.5
2754.2361,12436.5
2754.7830,12550.5
2755.3298,12626.5
2755.8767,12533.5
2756.4233,12569.5
2756.9697,12610.5
2757.5164,12424.5
2758.0627,12576.5
2758.6089,12522.5
2759.1550,12407.5
2759.7012,12543.5
2760.2471,12512.5
2760.7930,12329.5
2761.3386,12473.5
2761.8843,12495.5
2762.4299,12458.5
2762.9753,12529.5
2763.5208,12546.5
2764.0659,12487.5
2764.6111,12454.5
2765.1560,12604.5
2765.7012,12472.5
2766.2458,12475.5
2766.7905,12662.5
2767.3352,12450.5
2767.8799,12598.5
2768.4243,12536.5
2768.9685,12369.5
2769.5127,12477.5
2770.0569,12481.5
2770.6008,12445.5
2771.1448,12477.5
2771.6887,12476.5
2772.2324,12377.5
2772.7761,12424.5
2773.3196,12492.5
2773.8630,12272.5
2774.4063,12404.5
2774.9495,12430.5
2775.4927,12354.5
2776.0356,12344.5
2776.5786,12493.5
2777.1213,12449.5
2777.6641,12355.5
2778.2065,12491.5
2778.7490,12354.5
2779.2915,12271.5
2779.8337,12373.5
2780.3760,12443.5
2780.9182,12422.5
2781.4602,12534.5
2782.0020,12403.5
2782.5439,12384.5
2783.0854,12502.5
2783.6272,12414.5
2784.1687,12421.5
2784.7100,12512.5
2785.2512,12383.5
2785.7925,12304.5
2786.3335,12500.5
2786.8745,12390.5
2787.4155,12297.5
2787.9563,12437.5
2788.4968,12416.5
2789.0376,12308.5
2789.5779,12495.5
2790.1184,12419.5
2790.6587,12247.5
2791.1987,12457.5
2791.7390,12474.5
2792.2788,12317.5
2792.8188,12450.5
2793.3586,12412.5
2793.8982,12327.5
2794.4377,12347.5
2794.9773,12521.5
2795.5166,12402.5
2796.0559,12377.5
2796.5952,12413.5
2797.1343,12291.5
2797.6731,12397.5
2798.2122,12470.5
2798.7507,12364.5
2799.2896,12360.5
2799.8281,12500.5
2800.3665,12299.5
2800.9048,12339.5
2801.4431,12521.5
2801.9814,12343.5
2802.5193,12382.5
2803.0574,12520.5
2803.5952,12352.5
2804.1331,12358.5
2804.6707,12504.5
2805.2083,12375.5
2805.7456,12355.5
2806.2832,12480.5
2806.8203,12409.5
2807.3574,12415.5
2807.8945,12444.5
2808.4316,12399.5
2808.9685,12337.5
2809.5051,12399.5
2810.0417,12478.5
2810.5784,12331.5
2811.1147,12430.5
2811.6511,12491.5
2812.1875,12363.5
2812.7236,12462.5
2813.2598,12475.5
2813.7957,12328.5
2814.3315,12398.5
2814.8674,12545.5
2815.4031,12306.5
2815.9385,12419.5
2816.4741,12477.5
2817.0093,12308.5
2817.5447,12447.5
2818.0798,12522.5
2818.6147,12295.5
2819.1499,12382.5
2819.6846,12473.5
2820.2195,12419.5
2820.7542,12442.5
2821.2886,12567.5
2821.8232,12455.5
2822.3574,12369.5
2822.8918,12507.5
2823.4260,12400.5
2823.9600,12357.5
2824.4939,12643.5
2825.0278,12442.5
2825.5615,12343.5
2826.0952,12527.5
2826.6289,12563.5
2827.1624,12379.5
2827.6956,12584.5
2828.2290,12440.5
2828.7622,12411.5
2829.2952,12533.5
2829.8281,12539.5
2830.3611,12401.5
2830.8938,12541.5
2831.4265,12546.5
2831.9590,12421.5
2832.4915,12477.5
2833.0239,12479.5
2833.5562,12457.5
2834.0884,12457.5
2834.6204,12643.5
2835.1523,12381.5
2835.6843,12380.5
2836.2161,12662.5
2836.7476,12468.5
2837.2793,12504.5
2837.8108,12645.5
2838.3420,12481.5
2838.8733,12456.5
2839.4045,12586.5
2839.9355,12536.5
2840.4666,12432.5
2840.9976,12632.5
2841.5283,12547.5
2842.0588,12506.5
2842.5896,12589.5
2843.1201,12585.5
2843.6504,12419.5
2844.1807,12557.5
2844.7109,12592.5
2845.2410,12445.5
2845.7710,12602.5
2846.3008,12628.5
2846.8306,12484.5
2847.3604,12559.5
2847.8899,12643.5
2848.4194,12571.5
2848.9487,12589.5
2849.4780,12688.5
2850.0073,12571.5
2850.5364,12512.5
2851.0654,12748.5
2851.5942,12627.5
2852.1230,12572.5
2852.6519,12739.5
2853.1804,12573.5
2853.7090,12565.5
2854.2373,12585.5
2854.7656,12591.5
2855.2937,12551.5
2855.8218,12622.5
2856.3499,12686.5
2856.8779,12581.5
2857.4055,12680.5
2857.9333,12652.5
2858.4609,12547.5
2858.9885,12576.5
2859.5159,12623.5
2860.0432,12522.5
2860.5703,12646.5
2861.0977,12657.5
2861.6245,12549.5
2862.1514,12515.5
2862.6782,12779.5
2863.2051,12557.5
2863.7317,12572.5
2864.2583,12764.5
2864.7847,12664.5
2865.3110,12587.5
2865.8372,12678.5
2866.3633,12689.5
2866.8894,12555.5
2867.4153,12717.5
2867.9412,12549.5
2868.4668,12507.5
2868.9924,12712.5
2869.5181,12674.5
2870.0435,12499.5
2870.5688,12680.5
2871.0940,12731.5
2871.6191,12638.5
2872.1443,12693.5
2872.6692,12742.5
2873.1941,12615.5
2873.7190,12738.5
2874.2437,12746.5
2874.7681,12609.5
2875.2925,12626.5
2875.8169,12781.5
2876.3413,12590.5
2876.8655,12572.5
2877.3894,12784.5
2877.9133,12619.5
2878.4373,12601.5
2878.9609,12782.5
2879.4846,12678.5
2880.0083,12595.5
2880.5317,12801.5
2881.0552,12752.5
2881.5784,12658.5
2882.1016,12799.5
2882.6248,12806.5
2883.1477,12530.5
2883.6707,12679.5
2884.1934,12782.5
2884.7161,12530.5
2885.2388,12712.5
2885.7612,12859.5
2886.2837,12673.5
2886.8059,12560.5
2887.3281,12786.5
2887.8503,12721.5
2888.3723,12654.5
2888.8943,12827.5
2889.4160,12749.5
2889.9377,12640.5
2890.4592,12777.5
2890.9810,12664.5
2891.5022,12676.5
2892.0237,12871.5
2892.5449,12811.5
2893.0659,12671.5
2893.5869,12672.5
2894.1079,12821.5
2894.6289,12712.5
2895.1494,12720.5
2895.6702,12952.5
2896.1907,12725.5
2896.7112,12695.5
2897.2314,12904.5
2897.7517,12625.5
2898.2720,12786
2898.7920,12946.5
2899.3120,12785.5
2899.8318,12608.5
2900.3516,12827.5
2900.8713,12721.5
2901.3909,12646.5
2901.9104,12842.5
2902.4297,12788.5
2902.9490,12718.5
2903.4683,12727.5
2903.9873,12663.5
2904.5061,12599.5
2905.0251,12792.5
2905.5439,12940.5
2906.0625,12744.5
2906.5813,12731.5
2907.0996,12910.5
2907.6182,12737.5
2908.1365,12621.5
2908.6545,12887.5
2909.1729,12890.5
2909.6907,12650.5
2910.2087,12907.5
2910.7266,12840.5
2911.2441,12690.5
2911.7620,12754.5
2912.2793,12898.5
2912.7969,12695.5
2913.3142,12757.5
2913.8313,12939.5
2914.3486,12718.5
2914.8655,12776.5
2915.3826,12950.5
2915.8994,12802.5
2916.4160,12755.5
2916.9329,12970.5
2917.4495,12763.5
2917.9658,12679.5
2918.4822,12894.5
2918.9985,12867.5
2919.5146,12697.5
2920.0308,12861.5
2920.5466,13046.5
2921.0625,12778.5
2921.5784,12800.5
2922.0940,12934.5
2922.6096,12789.5
2923.1250,12804.5
2923.6406,13082.5
2924.1558,12831.5
2924.6709,12816.5
2925.1860,12961.5
2925.7012,12738.5
2926.2161,12759.5
2926.7310,12965.5
2927.2456,12896.5
2927.7603,12973
2928.2747,13049.5
2928.7891,12953.5
2929.3035,12750.5
2929.8179,12877.5
2930.3318,13011.5
2930.8459,12846.5
2931.3599,12898.5
2931.8738,13062.5
2932.3875,12867.5
2932.9011,12846.5
2933.4148,13043.5
2933.9282,12985.5
2934.4417,12859.5
2934.9548,12954.5
2935.4680,12998.5
2935.9812,12726.5
2936.4941,12956.5
2937.0071,12966.5
2937.5198,12843.5
2938.0325,12998.5
2938.5452,13024.5
2939.0576,12876.5
2939.5701,12803.5
2940.0823,13027.5
2940.5945,12973.5
2941.1067,12818.5
2941.6187,13035.5
2942.1306,13062.5
2942.6423,12841.5
2943.1541,12957.5
2943.6658,13025.5
2944.1772,12906.5
2944.6887,13108.5
2945.2002,13094.5
2945.7114,13030.5
2946.2224,12992.5
2946.7336,13198.5
2947.2446,13019.5
2947.7554,12892.5
2948.2661,13164.5
2948.7769,13068.5
2949.2874,12866.5
2949.7979,13143.5
2950.3083,13203.5
2950.8186,12905.5
2951.3289,13068.5
2951.8389,13078.5
2952.3489,12911.5
2952.8589,13121.5
2953.3687,13197.5
2953.8784,13025.5
2954.3879,12933.5
2954.8975,13218.5
2955.4070,13117.5
2955.9163,12937.5
2956.4255,13172.5
2956.9346,13055.5
2957.4436,12972.5
2957.9526,13094.5
2958.4614,13158.5
2958.9702,12938.5
2959.4790,13119.5
2959.9875,13264.5
2960.4958,13097.5
2961.0044,13096.5
2961.5127,13127.5
2962.0208,13040.5
2962.5288,13047.5
2963.0369,13129.5
2963.5447,13159.5
2964.0525,13008.5
2964.5603,13231.5
2965.0679,13149.5
2965.5754,13018.5
2966.0828,13167.5
2966.5901,13236.5
2967.0974,13033.5
2967.6045,13217.5
2968.1116,13178.5
2968.6187,13033.5
2969.1255,13084.5
2969.6321,13303.5
2970.1389,13242.5
2970.6453,13042.5
2971.1519,13317.5
2971.6582,13201.5
2972.1646,13015.5
2972.6707,13310.5
2973.1768,13211.5
2973.6829,13143.5
2974.1887,13227.5
2974.6943,13356.5
2975.2002,13140.5
2975.7058,12996.5
2976.2112,13300.5
2976.7168,13168.5
2977.2219,13048.5
2977.7273,13199.5
2978.2324,13285.5
2978.7375,13142.5
2979.2424,13174.5
2979.7473,13247.5
2980.2520,13118.5
2980.7566,13216.5
2981.2612,13149.5
2981.7656,13082.5
2982.2700,13060.5
2982.7744,13321.5
2983.2786,13236.5
2983.7827,13053.5
2984.2866,13329.5
2984.7905,13172.5
2985.2942,13158.5
2985.7981,13293.5
2986.3018,13215.5
2986.8052,13089.5
2987.3086,13260.5
2987.8120,13320.5
2988.3152,13241.5
2988.8184,13185.5
2989.3213,13343.5
2989.8242,13258.5
2990.3271,13179.5
2990.8298,13391.5
2991.3325,13281.5
2991.8352,13181.5
2992.3376,13347.5
2992.8401,13365.5
2993.3423,13187.5
2993.8445,13242.5
2994.3467,13399.5
2994.8486,13281.5
2995.3506,13158.5
2995.8523,13402.5
2996.3540,13264.5
2996.8557,13154.5
2997.3572,13391.5
2997.8586,13314.5
2998.3601,13203.5
2998.8613,13397.5
2999.3623,13443.5
2999.8635,13163.5
3000.3645,13284.5
3000.8652,13393.5
3001.3660,13248.5
3001.8667,13257.5
3002.3674,13512.5
3002.8679,13298.5
3003.3682,13224.5
3003.8687,13392.5
3004.3687,13342.5
3004.8689,13178.5
3005.3689,13292.5
3005.8689,13465.5
3006.3687,13230.5
3006.8684,13281.5
3007.3682,13466.5
3007.8677,13225.5
3008.3669,13294.5
3008.8665,13443.5
3009.3657,13429.5
3009.8650,13195.5
3010.3640,13431.5
3010.8630,13416.5
3011.3618,13209.5
3011.8606,13285.5
3012.3594,13253
3012.8579,13220.5
3013.3564,13272.5
3013.8550,13445.5
3014.3533,13393.5
3014.8513,13235.5
3015.3496,13372.5
3015.8477,13367.5
3016.3455,13210.5
3016.8435,13349.5
3017.3413,13472.5
3017.8389,13321.5
3018.3364,13312.5
3018.8340,13483.5
3019.3313,13277.5
3019.8286,13291.5
3020.3259,13503.5
3020.8230,13484.5
3021.3198,13211.5
3021.8169,13453.5
3022.3137,13489.5
3022.8103,13205.5
3023.3071,13398.5
3023.8037,13471.5
3024.3000,13446.5
3024.7964,13265.5
3025.2927,13578.5
3025.7888,13420.5
3026.2849,13499.5
3026.7810,13578.5
3027.2769,13521.5
3027.7725,13269.5
3028.2683,13379.5
3028.7639,13555.5
3029.2593,13246.5
3029.7549,13385.5
3030.2502,13573.5
3030.7454,13453.5
3031.2405,13371.5
3031.7356,13544.5
3032.2305,13539.5
3032.7253,13369.5
3033.2202,13460.5
3033.7148,13537.5
3034.2095,13322.5
3034.7039,13398.5
3035.1982,13619.5
3035.6926,13482.5
3036.1868,13333.5
3036.6809,13521.5
3037.1748,13480.5
3037.6689,13397.5
3038.1626,13576.5
3038.6565,13634.5
3039.1501,13404.5
3039.6436,13492.5
3040.1370,13596.5
3040.6304,13523.5
3041.1238,13440.5
3041.6169,13662.5
3042.1099,13609.5
3042.6030,13376.5
3043.0959,13517.5
3043.5886,13643.5
3044.0813,13332.5
3044.5740,13487.5
3045.0664,13660.5
3045.5588,13546.5
3046.0513,13486.5
3046.5435,13593.5
3047.0356,13538.5
3047.5278,13454.5
3048.0198,13638.5
3048.5117,13711.5
3049.0034,13518.5
3049.4951,13521.5
3049.9866,13738.5
3050.4783,13539.5
3050.9695,13521.5
3051.4609,13738.5
3051.9521,13616.5
3052.4434,13557.5
3052.9343,13708.5
3053.4253,13596
3053.9160,13483.5
3054.4070,13613.5
3054.8975,13801.5
3055.3882,13679.5
3055.6248,13692
3056.1714,13668
3056.7183,13674
3057.2649,13663
3057.8113,13741
3058.3577,13742
3058.9041,13687
3059.4502,13698
3059.9961,13868
3060.5422,13745
3061.0881,13742
3061.6338,13710
3062.1794,13794
3062.7251,13747
3063.2705,13870
3063.8159,13780
3064.3611,13721
3064.9063,13903
3065.4514,13755
3065.9963,13783
3066.5410,13861
3067.0859,13798
3067.6304,13872
3068.1750,13896
3068.7195,13830
3069.2637,13890
3069.8081,13880
3070.3521,13837
3070.8962,13875
3071.4402,13872
3071.9839,13889
3072.5276,13897
3073.0713,13937
3073.6147,13963
3074.1582,13940
3074.7014,13972
3075.2446,13994
3075.7878,13957
3076.3308,13938
3076.8738,14043
3077.4165,14042
3077.9592,14074
3078.5017,13939
3079.0442,14033
3079.5867,14100
3080.1289,14067
3080.6711,14101
3081.2131,14067
3081.7551,14052
3082.2969,14166
3082.8389,14074
3083.3804,14253
3083.9219,14244
3084.4634,14219
3085.0049,14154
3085.5461,14176
3086.0872,14171
3086.6282,14161
3087.1692,14219
3087.7102,14242
3088.2507,14248
3088.7915,14269
3089.3320,14327
3089.8726,14315
3090.4128,14366
3090.9531,14321
3091.4932,14343
3092.0332,14422
3092.5732,14434
3093.1130,14447
3093.6528,14493
3094.1924,14472
3094.7319,14563
3095.2712,14559
3095.8105,14471
3096.3499,14540
3096.8889,14564
3097.4280,14543
3097.9670,14575
3098.5056,14642
3099.0444,14583
3099.5830,14659
3100.1216,14615
3100.6599,14681
3101.1982,14634
3101.7366,14700
3102.2747,14857
3102.8125,14632
3103.3506,14803
3103.8882,14741
3104.4260,14787
3104.9636,14748
3105.5010,14775
3106.0386,14893
3106.5757,14792
3107.1130,14855
3107.6501,14856
3108.1870,14983
3108.7239,14942
3109.2607,14980
3109.7974,14889
3110.3340,14994
3110.8704,14943
3111.4067,14920
3111.9431,14978
3112.4792,14955
3113.0154,14973
3113.5513,15068
3114.0872,14936
3114.6230,14979
3115.1587,15145
3115.6941,15159
3116.2297,14987
3116.7651,15131
3117.3003,15153
3117.8354,15094
3118.3706,15046
3118.9055,15142
3119.4404,15081
3119.9751,15028
3120.5098,15122
3121.0444,15099
3121.5789,15143
3122.1130,15129
3122.6475,15195
3123.1816,15005
3123.7156,15110
3124.2495,15150
3124.7834,15063
3125.3171,15147
3125.8508,15088
3126.3843,15053
3126.9177,15137
3127.4512,15063
3127.9844,15151
3128.5176,15131
3129.0505,15166
3129.5835,14978
3130.1165,15166
3130.6492,15125
3131.1819,15081
3131.7144,15020
3132.2468,15074
3132.7791,14964
3133.3113,15033
3133.8435,15115
3134.3755,14989
3134.9075,14974
3135.4392,15118
3135.9709,14937
3136.5027,15001
3137.0342,14930
3137.5657,14997
3138.0969,14951
3138.6282,14925
3139.1594,14949
3139.6904,14942
3140.2214,14892
3140.7522,14965
3141.2830,14929
3141.8135,14856
3142.3440,14764
3142.8745,14779
3143.4048,14851
3143.9351,14802
3144.4651,14875
3144.9954,14867
3145.5251,14693
3146.0549,14896
3146.5847,14795
3147.1143,14738
3147.6438,14791
3148.1733,14879
3148.7026,14692
3149.2319,14701
3149.7610,14536
3150.2900,14607
3150.8191,14652
3151.3479,14559
3151.8765,14612
3152.4053,14607
3152.9336,14523
3153.4622,14440
3153.9905,14617
3154.5188,14507
3155.0469,14438
3155.5750,14540
3156.1028,14421
3156.6306,14547
3157.1584,14489
3157.6860,14479
3158.2136,14364
3158.7410,14384
3159.2683,14372
3159.7954,14387
3160.3228,14351
3160.8496,14429
3161.3767,14392
3161.9036,14329
3162.4302,14313
3162.9568,14303
3163.4834,14353
3164.0098,14276
3164.5361,14256
3165.0623,14170
3165.5884,14259
3166.1145,14210
3166.6404,14266
3167.1663,14280
3167.6921,14141
3168.2178,14163
3168.7432,14202
3169.2686,14146
3169.7939,14046
3170.3193,14228
3170.8445,14153
3171.3694,14142
3171.8943,14130
3172.4192,14164
3172.9438,14164
3173.4685,14057
3173.9932,14040
3174.5176,14070
3175.0420,14208
3175.5662,14006
3176.0903,14001
3176.6143,14131
3177.1384,14062
3177.6621,14068
3178.1860,13979
3178.7095,14047
3179.2332,14088
3179.7566,13997
3180.2800,14026
3180.8032,13989
3181.3264,14084
3181.8494,13992
3182.3723,13964
3182.8953,14001
3183.4180,13893
3183.9407,13905
3184.4631,13967
3184.9856,13955
3185.5081,13996
3186.0303,13986
3186.5525,13908
3187.0745,13854
3187.5964,13949
3188.1184,13934
3188.6401,13901
3189.1619,13939
3189.6833,13911
3190.2048,13902
3190.7263,13868
3191.2476,13919
3191.7688,13869
3192.2898,13947
3192.8108,13857
3193.3315,13908
3193.8525,13920
3194.3730,13856
3194.8938,13892
3195.4143,13953
3195.9346,13830
3196.4548,13882
3196.9751,13864
3197.4951,13883
3198.0151,13839
3198.5352,13848
3199.0549,13750
3199.5745,13822
3200.0942,13887
3200.6135,13883
3201.1331,13847
3201.6523,13872
3202.1716,13850
3202.6907,13857
3203.2097,13853
3203.7285,13791
3204.2473,13860
3204.7661,13739
3205.2847,13844
3205.8032,13800
3206.3218,13823
3206.8401,13759
3207.3582,13806
3207.8762,13801
3208.3943,13765
3208.9124,13760
3209.4302,13766
3209.9478,13729
3210.4656,13694
3210.9829,13728
3211.5005,13808
3212.0178,13759
3212.5352,13724
3213.0522,13786
3213.5693,13677
3214.0862,13741
3214.6030,13740
3215.1199,13693
3215.6365,13707
3216.1531,13752
3216.6694,13749
3217.1858,13680
3217.7021,13751
3218.2183,13718
3218.7344,13718
3219.2502,13787
3219.7661,13742
3220.2820,13785
3220.7976,13769
3221.3132,13743
3221.8286,13683
3222.3440,13761
3222.8594,13704
3223.3745,13751
3223.8896,13774
3224.4045,13760
3224.9194,13702
3225.4343,13819
3225.9490,13740
3226.4636,13695
3226.9780,13731
3227.4924,13700
3228.0068,13753
3228.5210,13745
3229.0352,13741
3229.5491,13741
3230.0630,13787
3230.5769,13753
3231.0906,13688
3231.6042,13738
3232.1177,13706
3232.6311,13766
3233.1445,13756
3233.6577,13803
3234.1709,13748
3234.6838,13697
3235.1968,13700
3235.7097,13658
3236.2224,13673
3236.7351,13746
3237.2476,13697
3237.7600,13742
3238.2725,13672
3238.7847,13756
3239.2969,13698
3239.8088,13731
3240.3208,13734
3240.8328,13674
3241.3445,13705
3241.8562,13647
3242.3677,13689
3242.8792,13748
3243.3906,13627
3243.9019,13650
3244.4131,13654
3244.9241,13708
3245.4351,13598
3245.9460,13673
3246.4568,13664
3246.9675,13642
3247.4783,13623
3247.9888,13650
3248.4990,13744
3249.0095,13668
3249.5195,13614
3250.0298,13701
3250.5398,13651
3251.0498,13563
3251.5596,13615
3252.0693,13606
3252.5789,13689
3253.0884,13617
3253.5979,13669
3254.1072,13598
3254.6165,13683
3255.1257,13617
3255.6348,13535
3256.1438,13709
3256.6526,13673
3257.1614,13644
3257.6699,13600
3258.1785,13666
3258.6870,13589
3259.1953,13465
3259.7036,13587
3260.2119,13501
3260.7200,13610
3261.2280,13640
3261.7358,13629
3262.2437,13651
3262.7515,13574
3263.2590,13607
3263.7666,13585
3264.2739,13560
3264.7813,13588
3265.2883,13603
3265.7957,13554
3266.3025,13491
3266.8096,13591
3267.3164,13555
3267.8230,13562
3268.3298,13562
3268.8362,13576
3269.3428,13656
3269.8491,13581
3270.3555,13615
3270.8616,13480
3271.3677,13581
3271.8735,13591
3272.3794,13556
3272.8853,13587
3273.3909,13471
3273.8965,13607
3274.4019,13436
3274.9075,13601
3275.4126,13644
3275.9180,13538
3276.4229,13517
3276.9280,13553
3277.4329,13552
3277.9377,13569
3278.4424,13531
3278.9470,13467
3279.4517,13462
3279.9561,13541
3280.4602,13475
3280.9646,13536
3281.4688,13502
3281.9727,13439
3282.4768,13508
3282.9805,13615
3283.4844,13483
3283.9880,13482
3284.4915,13418
3284.9951,13494
3285.4983,13509
3286.0017,13458
3286.5049,13529
3287.0081,13470
3287.5110,13437
3288.0139,13456
3288.5166,13489
3289.0193,13515
3289.5220,13463
3290.0244,13482
3290.5269,13494
3291.0293,13471
3291.5315,13409
3292.0334,13404
3292.5356,13489
3293.0376,13436
3293.5393,13484
3294.0410,13459
3294.5427,13469
3295.0444,13468
3295.5459,13451
3296.0471,13465
3296.5483,13466
3297.0496,13487
3297.5508,13446
3298.0518,13495
3298.5525,13484
3299.0535,13504
3299.5540,13443
3300.0547,13497
3300.5552,13388
3301.0557,13457
3301.5559,13332
3302.0562,13480
3302.5562,13368
3303.0564,13398
3303.5562,13325
3304.0562,13432
3304.5559,13334
3305.0554,13473
3305.5549,13421
3306.0544,13389
3306.5540,13512
3307.0532,13366
3307.5522,13467
3308.0513,13403
3308.5503,13418
3309.0493,13382
3309.5481,13257
3310.0466,13383
3310.5454,13342
3311.0439,13340
3311.5422,13425
3312.0405,13443
3312.5388,13444
3313.0369,13441
3313.5349,13421
3314.0330,13324
3314.5308,13393
3315.0286,13407
3315.5261,13438
3316.0237,13376
3316.5212,13395
3317.0186,13389
3317.5159,13381
3318.0129,13435
3318.5100,13426
3319.0071,13371
3319.5039,13372
3320.0007,13369
3320.4976,13352
3320.9941,13293
3321.4905,13479
3321.9871,13320
3322.4834,13329
3322.9795,13372
3323.4756,13357
3323.9717,13369
3324.4678,13372
3324.9636,13380
3325.4592,13394
3325.9548,13370
3326.4504,13370
3326.9460,13349
3327.4414,13342
3327.9365,13367
3328.4319,13386
3328.9270,13456
3329.4219,13412
3329.9167,13344
3330.4116,13349
3330.9063,13340
3331.4009,13379
3331.8955,13395
3332.3899,13273
3332.8843,13366
3333.3787,13384
3333.8728,13264
3334.3667,13298
3334.8606,13416
3335.3545,13384
3335.8484,13363
3336.3420,13365
3336.8357,13417
3337.3291,13397
3337.8225,13322
3338.3159,13391
3338.8091,13299
3339.3022,13336
3339.7952,13365
3340.2881,13440
3340.7810,13349
3341.2737,13286
3341.7664,13341
3342.2588,13350
3342.7512,13331
3343.2437,13421
3343.7358,13385
3344.2280,13371
3344.7202,13243
3345.2122,13320
3345.7041,13353
3346.1958,13373
3346.6875,13369
3347.1792,13339
3347.6707,13329
3348.1621,13405
3348.6533,13429
3349.1448,13355
3349.6357,13342
3350.1270,13290
3350.6179,13377
3351.1086,13378
3351.5994,13495
3352.0901,13397
3352.5806,13374
3353.0710,13366
3353.5615,13302
3354.0518,13308
3354.5420,13444
3355.0322,13409
3355.5222,13391
3356.0120,13223
3356.5020,13403
3356.9917,13341
3357.4812,13297
3357.9709,13397
3358.4602,13455
3358.9497,13345
3359.4390,13394
3359.9280,13435
3360.4172,13359
3360.9063,13350
3361.3950,13385
3361.8838,13398
3362.3726,13314
3362.8611,13305
3363.3496,13437
3363.8381,13311
3364.3264,13317
3364.8147,13371
3365.3027,13285
3365.7908,13362
3366.2788,13397
3366.7666,13321
3367.2544,13247
3367.7422,13382
3368.2297,13429
3368.7173,13294
3369.2046,13371
3369.6919,13405
3370.1792,13445
3370.6663,13384
3371.1533,13316
3371.6401,13340
3372.1270,13351
3372.6138,13329
3373.1003,13383
3373.5869,13380
3374.0735,13286
3374.5598,13351
3375.0461,13340
3375.5322,13312
3376.0183,13317
3376.5044,13387
3376.9902,13389
3377.4761,13293
3377.9617,13315
3378.4475,13299
3378.9329,13276
3379.4185,13398
3379.9038,13349
3380.3889,13292
3380.8740,13290
3381.3591,13354
3381.8442,13262
3382.3291,13284
3382.8140,13278
3383.2986,13367
3383.7832,13330
3384.2676,13312
3384.7522,13443
3385.2363,13285
3385.7207,13304
3386.2048,13401
3386.6887,13291
3387.1729,13254
3387.6567,13323
3388.1404,13338
3388.6240,13388
3389.1077,13226
3389.5911,13272
3390.0745,13298
3390.5579,13234
3391.0410,13331
3391.5242,13313
3392.0073,13311
3392.4902,13242
3392.9729,13347
3393.4558,13278
3393.9385,13278
3394.4209,13290
3394.9036,13286
3395.3857,13226
3395.8682,13169
3396.3503,13313
3396.8325,13258
3397.3145,13229
3397.7964,13304
3398.2781,13382
3398.7600,13189
3399.2415,13180
3399.7231,13248
3400.2046,13174
3400.6860,13213
3401.1672,13191
3401.6484,13400
3402.1294,13262
3402.6104,13276
3403.0913,13226
3403.5723,13180
3404.0530,13144
3404.5334,13329
3405.0142,13269
3405.4944,13193
3405.9749,13235
3406.4551,13250
3406.9353,13205
3407.4153,13143
3407.8953,13303
3408.3752,13198
3408.8550,13173
3409.3347,13264
3409.8142,13229
3410.2939,13179
3410.7732,13152
3411.2527,13241
3411.7319,13211
3412.2109,13196
3412.6899,13233
3413.1689,13300
3413.6479,13195
3414.1267,13157
3414.6055,13214
3415.0840,13129
3415.5625,13138
3416.0408,13255
3416.5193,13240
3416.9976,13095
3417.4756,13118
3417.9536,13263
3418.4316,13203
3418.9094,13183
3419.3872,13304
3419.8650,13263
3420.3425,13171
3420.8201,13159
3421.2974,13160
3421.7747,13149
3422.2520,13049
3422.7290,13208
3423.2061,13222
3423.6831,13156
3424.1599,13118
3424.6367,13167
3425.1133,13125
3425.5898,13046
3426.0664,13278
3426.5427,13133
3427.0190,13039
3427.4954,13188
3427.9714,13224
3428.4475,13032
3428.9233,13053
3429.3994,13233
3429.8750,13172
3430.3508,13085
3430.8264,13215
3431.3018,13262
3431.7771,12990
3432.2524,12949
3432.7278,13243
3433.2029,13115
3433.6777,12979
3434.1528,13262
3434.6277,13199
3435.1023,13071
3435.5771,13078
3436.0515,13145
3436.5261,12963
3437.0005,13017
3437.4749,13072
3437.9490,13197
3438.4231,12972
3438.8972,13019
3439.3711,13152
3439.8450,13075
3440.3186,12975
3440.7922,13089
3441.2659,13217
3441.7393,13103
3442.2126,13163
3442.6860,13117
3443.1592,13016
3443.6323,12989
3444.1052,13097
3444.5784,13139
3445.0510,13098
3445.5239,12996
3445.9966,13116
3446.4690,13055
3446.9417,13054
3447.4141,13021
3447.8862,13144
3448.3584,13078
3448.8306,13112
3449.3025,13111
3449.7744,12987
3450.2463,12941
3450.7180,13187
3451.1897,13207
3451.6614,12965
3452.1328,13008
3452.6042,13278
3453.0754,13087
3453.5466,12904
3454.0178,13109
3454.4888,13140
3454.9597,13042
3455.4307,13022
3455.9014,13174
3456.3721,13085
3456.8425,13065
3457.3130,13078
3457.7834,13132
3458.2537,13072
3458.7239,13016
3459.1941,13185
3459.6641,13099
3460.1340,12979
3460.6038,13117
3461.0735,13045
3461.5432,12929
3462.0127,12982
3462.4822,13227
3462.9517,13107
3463.4209,12951
3463.8901,13054
3464.3594,13109
3464.8284,12940
3465.2974,12982
3465.7661,13115
3466.2349,13026
3466.7036,12925
3467.1721,13099
3467.6406,13109
3468.1091,13003
3468.5774,13064
3469.0457,13127
3469.5137,13156
3469.9817,12980
3470.4497,13168
3470.9175,13137
3471.3853,12910
3471.8530,13005
3472.3206,13078
3472.7881,13093
3473.2554,12959
3473.7227,13075
3474.1899,13091
3474.6570,13053
3475.1240,13061
3475.5911,13089
3476.0579,13088
3476.5247,13046
3476.9915,13005
3477.4580,13145
3477.9246,13002
3478.3909,13002
3478.8572,13064
3479.3235,13057
3479.7896,12985
3480.2556,13115
3480.7217,13141
3481.1875,12963
3481.6533,12822
3482.1189,13109
3482.5845,13138
3483.0500,12981
3483.5156,13002
3483.9810,13161
3484.4460,12997
3484.9111,12991
3485.3762,13091
3485.8413,13098
3486.3062,12983
3486.7710,13004
3487.2356,13185
3487.7002,13128
3488.1648,12953
3488.6292,13072
3489.0935,13146
3489.5579,12970
3490.0220,13040
3490.4861,13096
3490.9502,13149
3491.4141,12966
3491.8777,13141
3492.3416,13108
3492.8052,12956
3493.2686,12932
3493.7322,13220
3494.1956,13047
3494.6587,12927
3495.1218,13023
3495.5850,13140
3496.0481,12941
3496.5110,12921
3496.9739,13136
3497.4365,13068
3497.8992,12928
3498.3618,13077
3498.8242,13078
3499.2866,12981
3499.7488,12869
3500.2109,13125
3500.6731,13069
3501.1353,12968
3501.5972,13040
3502.0588,13180
3502.5208,12968
3502.9824,12961
3503.4438,13039
3503.9053,13078
3504.3667,12923
3504.8281,13004
3505.2893,13183
3505.7505,13003
3506.2114,12902
3506.6724,13063
3507.1333,13087
3507.5940,12962
3508.0547,13043
3508.5154,13147
3508.9758,12994
3509.4363,12991
3509.8965,13028
3510.3567,13150
3510.8169,12952
3511.2771,12959
3511.7371,13098
3512.1968,13048
3512.6567,12960
3513.1162,13016
3513.5759,13202
3514.0354,12876
3514.4949,12894
3514.9543,12970
3515.4136,13175
3515.8726,12889
3516.3318,12940
3516.7908,13191
3517.2495,12981
3517.7085,12853
3518.1672,13108
3518.6257,13135
3519.0842,12917
3519.5427,12985
3520.0012,13219
3520.4595,13016
3520.9177,12764
3521.3757,12907
3521.8337,13127
3522.2917,12894
3522.7495,12936
3523.2073,13035
3523.6648,12989
3524.1226,12808
3524.5801,12889
3525.0374,13065
3525.4946,12888
3525.9519,12816
3526.4089,13110
3526.8660,13051
3527.3230,12852
3527.7798,12909
3528.2366,13005
3528.6934,13015
3529.1499,12784
3529.6064,13044
3530.0627,13118
3530.5190,12931
3530.9753,12916
3531.4316,13055
3531.8877,12900
3532.3435,12802
3532.7996,12923
3533.2554,13083
3533.7109,12938
3534.1665,12796
3534.6221,12966
3535.0776,12977
3535.5330,12803
3535.9883,12847
3536.4434,13019
3536.8984,12977
3537.3535,12850
3537.8083,12964
3538.2632,13026
3538.7180,12904
3539.1726,12881
3539.6272,13065
3540.0815,12960
3540.5361,12794
3540.9902,12964
3541.4446,13116
3541.8987,12914
3542.3528,12800
3542.8066,12970
3543.2605,13073
3543.7144,12850
3544.1680,12863
3544.6216,13018
3545.0750,12977
3545.5286,12682
3545.9817,12880
3546.4351,12959
3546.8882,12863
3547.3413,12740
3547.7942,13051
3548.2471,13070
3548.7000,12777
3549.1526,12763
3549.6052,12935
3550.0579,12931
3550.5103,12727
3550.9626,12899
3551.4148,12984
3551.8669,12804
3552.3191,12811
3552.7712,12949
3553.2231,12939
3553.6748,12711
3554.1267,12817
3554.5784,13087
3555.0298,12787
3555.4814,12743
3555.9329,12869
3556.3840,13112
3556.8352,12765
3557.2864,12734
3557.7375,13068
3558.1885,12993
3558.6394,12721
3559.0901,12908
3559.5408,13027
3559.9915,12802
3560.4419,12801
3560.8923,12941
3561.3428,12985
3561.7930,12733
3562.2432,12851
3562.6931,12975
3563.1431,12900
3563.5930,12703
3564.0430,12871
3564.4927,13003
3564.9424,12748
3565.3918,12806
3565.8413,12995
3566.2908,12911
3566.7400,12707
3567.1892,12737
3567.6382,13081
3568.0874,12841
3568.5364,12686
3568.9851,12891
3569.4338,13111
3569.8826,12814
3570.3313,12782
3570.7798,12996
3571.2280,13000
3571.6765,12678
3572.1248,12842
3572.5728,12996
3573.0210,12862
3573.4690,12702
3573.9167,12983
3574.3645,13012
3574.8123,12796
3575.2600,12698
3575.7075,12934
3576.1550,12959
3576.6023,12804
3577.0496,12853
3577.4968,12987
3577.9438,12797
3578.3909,12689
3578.8379,12808
3579.2847,12927
3579.7314,12793
3580.1782,12689
3580.6248,13006
3581.0713,12979
3581.5178,12601
3581.9641,12766
3582.4104,12954
3582.8564,12851
3583.3025,12716
3583.7485,12879
3584.1943,13062
3584.6401,12728
3585.0859,12699
3585.5315,12995
3585.9771,12949
3586.4226,12664
3586.8679,12839
3587.3132,13035
3587.7585,12931
3588.2036,12629
3588.6487,12885
3589.0935,12948
3589.5383,12740
3589.9832,12623
3590.4277,12986
3590.8723,12969
3591.3169,12694
3591.7612,12748
3592.2056,12965
3592.6499,12790
3593.0940,12780
3593.5381,12986
3593.9822,13042
3594.4260,12822
3594.8699,12677
3595.3135,12972
3595.7571,12952
3596.2007,12559
3596.6443,12827
3597.0876,12999
3597.5310,12893
3597.9741,12681
3598.4172,12783
3598.8604,12975
3599.3032,12798
3599.7461,12672
3600.1887,12926
3600.6316,12937
3601.0742,12774
3601.5166,12766
3601.9590,12999
3602.4014,12870
3602.8438,12613
3603.2859,12767
3603.7280,13072
3604.1699,12936
3604.6118,12718
3605.0537,12940
3605.4954,13111
3605.9370,12725
3606.3787,12696
3606.8201,13025
3607.2615,12948
3607.7029,12662
3608.1440,12796
3608.5852,13029
3609.0261,12851
3609.4673,12687
3609.9080,12836
3610.3489,13043
3610.7896,12776
3611.2302,12703
3611.6707,13000
3612.1111,13035
3612.5515,12732
3612.9917,12749
3613.4319,12925
3613.8721,12773
3614.3120,12592
3614.7520,12900
3615.1919,12978
3615.6316,12798
3616.0713,12672
3616.5107,12893
3616.9504,12865
3617.3899,12723
3617.8291,12647
3618.2683,12968
3618.7075,12836
3619.1465,12743
3619.5854,12798
3620.0244,12893
3620.4634,12767
3620.9021,12568
3621.3406,12820
3621.7793,12934
3622.2178,12679
3622.6560,12756
3623.0942,12948
3623.5325,12905
3623.9707,12642
3624.4087,12845
3624.8467,12949
3625.2844,12804
3625.7224,12648
3626.1599,12810
3626.5977,13001
3627.0352,12722
3627.4727,12585
3627.9099,12800
3628.3472,12866
3628.7844,12678
3629.2214,12625
3629.6584,12914
3630.0955,12859
3630.5322,12637
3630.9690,12670
3631.4058,12873
3631.8423,12734
3632.2788,12663
3632.7151,12734
3633.1516,12898
3633.5879,12695
3634.0239,12604
3634.4600,12754
3634.8960,12828
3635.3318,12588
3635.7678,12596
3636.2034,12867
3636.6392,12833
3637.0747,12512
3637.5100,12598
3637.9456,12743
3638.3809,12647
3638.8159,12481
3639.2512,12683
3639.6863,12872
3640.1211,12569
3640.5562,12535
3640.9907,12782
3641.4255,12721
3641.8601,12396
3642.2947,12518
3642.7292,12696
3643.1636,12673
3643.5979,12576
3644.0320,12618
3644.4661,12768
3644.9001,12623
3645.3340,12400
3645.7678,12686
3646.2017,12673
3646.6355,12483
3647.0691,12575
3647.5024,12734
3647.9360,12641
3648.3694,12385
3648.8025,12507
3649.2356,12695
3649.6687,12589
3650.1018,12425
3650.5347,12475
3650.9675,12801
3651.4004,12480
3651.8330,12361
3652.2656,12575
3652.6980,12688
3653.1304,12384
3653.5627,12344
3653.9951,12638
3654.4272,12570
3654.8591,12351
3655.2913,12446
3655.7231,12593
3656.1550,12539
3656.5867,12324
3657.0183,12459
3657.4500,12692
3657.8813,12530
3658.3127,12342
3658.7441,12492
3659.1753,12542
3659.6064,12329
3660.0374,12305
3660.4685,12476
3660.8994,12480
3661.3301,12349
3661.7607,12358
3662.1914,12527
3662.6221,12443
3663.0525,12106
3663.4829,12245
3663.9131,12510
3664.3433,12376
3664.7734,12153
3665.2034,12406
3665.6335,12558
3666.0632,12310
3666.4932,12191
3666.9229,12343
3667.3523,12413
3667.7820,12277
3668.2114,12118
3668.6406,12386
3669.0701,12500
3669.4993,12170
3669.9282,12164
3670.3574,12407
3670.7864,12332
3671.2151,12197
3671.6438,12234
3672.0725,12378
3672.5012,12256
3672.9297,11997
3673.3582,12196
3673.7864,12384
3674.2148,12115
3674.6428,12061
3675.0710,12276
3675.4990,12436
3675.9270,12153
3676.3547,12028
3676.7825,12257
3677.2102,12217
3677.6377,11994
3678.0654,12135
3678.4927,12277
3678.9202,12275
3679.3474,11940
3679.7744,12151
3680.2017,12334
3680.6287,12066
3681.0554,11857
3681.4824,12074
3681.9092,12273
3682.3357,12076
3682.7622,12023
3683.1887,12139
3683.6152,12209
3684.0415,11917
3684.4678,11858
3684.8940,12144
3685.3201,12254
3685.7461,11983
3686.1719,11943
3686.5977,12228
3687.0234,12149
3687.4492,11744
3687.8748,11966
3688.3003,12151
3688.7256,12063
3689.1509,11890
3689.5762,12016
3690.0012,12171
3690.4265,11940
3690.8513,11772
3691.2764,12030
3691.7012,12120
3692.1257,11939
3692.5505,11755
3692.9751,12070
3693.3997,12153
3693.8240,11822
3694.2483,11797
3694.6726,12127
3695.0967,12180
3695.5208,11772
3695.9446,11838
3696.3687,12077
3696.7925,12044
3697.2161,11743
3697.6396,11816
3698.0632,12144
3698.4868,12020
3698.9102,11680
3699.3335,11882
3699.7568,12162
3700.1799,11960
3700.6030,11651
3701.0259,11854
3701.4487,12071
3701.8716,11775
3702.2944,11581
3702.7170,11882
3703.1396,12015
3703.5620,11729
3703.9844,11673
3704.4067,11954
3704.8289,12049
3705.2512,11741
3705.6731,11589
3706.0952,11895
3706.5171,11931
3706.9387,11671
3707.3606,11796
3707.7822,11928
3708.2039,11843
3708.6252,11552
3709.0466,11747
3709.4680,11910
3709.8892,11749
3710.3103,11555
3710.7314,11826
3711.1523,11988
3711.5732,11762
3711.9941,11547
3712.4148,11792
3712.8354,11823
3713.2559,11638
3713.6765,11570
3714.0969,11812
3714.5171,11924
3714.9375,11719
3715.3574,11519
3715.7776,11864
3716.1975,11796
3716.6174,11503
3717.0374,11652
3717.4570,11884
3717.8767,11875
3718.2961,11486
3718.7156,11629
3719.1350,11849
3719.5544,11738
3719.9736,11484
3720.3928,11633
3720.8118,11876
3721.2307,11705
3721.6497,11585
3722.0686,11667
3722.4873,11813
3722.9060,11555
3723.3245,11451
3723.7429,11663
3724.1614,11780
3724.5796,11662
3724.9978,11557
3725.4160,11680
3725.8342,11787
3726.2522,11496
3726.6699,11409
3727.0879,11601
3727.5056,11723
3727.9233,11502
3728.3408,11565
3728.7583,11845
3729.1758,11721
3729.5930,11464
3730.0103,11450
3730.4275,11708
3730.8445,11699
3731.2615,11373
3731.6785,11513
3732.0952,11715
3732.5120,11732
3732.5237,11596.1
3732.9819,11487.1
3733.4402,11480.1
3733.8984,11544.1
3734.3564,11473.1
3734.8145,11526.1
3735.2725,11439.1
3735.7302,11535.1
3736.1880,11524.1
3736.6455,11478.1
3737.1030,11502.1
3737.5605,11407.1
3738.0178,11466.1
3738.4751,11394.1
3738.9324,11473.1
3739.3894,11396.1
3739.8464,11461.1
3740.3035,11480.1
3740.7603,11459.1
3741.2168,11456.1
3741.6736,11472.1
3742.1301,11362.1
3742.5867,11351.1
3743.0430,11330.1
3743.4993,11419.1
3743.9556,11375.1
3744.4116,11410.1
3744.8677,11457.1
3745.3235,11364.1
3745.7793,11416.1
3746.2351,11379.1
3746.6909,11354.1
3747.1465,11350.1
3747.6018,11352.1
3748.0574,11402.1
3748.5127,11450.1
3748.9678,11297.1
3749.4231,11379.1
3749.8779,11341.1
3750.3330,11289.1
3750.7878,11397.1
3751.2427,11296.1
3751.6973,11376.1
3752.1519,11298.1
3752.6064,11275.1
3753.0608,11458.1
3753.5151,11352.1
3753.9695,11362.1
3754.4236,11401.1
3754.8777,11371.1
3755.3318,11312.1
3755.7856,11321.1
3756.2395,11276.1
3756.6931,11237.1
3757.1467,11266.1
3757.6003,11283.1
3758.0537,11337.1
3758.5071,11419.1
3758.9604,11318.1
3759.4136,11239.1
3759.8667,11290.1
3760.3196,11377.1
3760.7727,11194.1
3761.2253,11214.1
3761.6782,11200.1
3762.1309,11259.1
3762.5835,11154.1
3763.0359,11178.1
3763.4883,11193.1
3763.9407,11134.1
3764.3928,11243.1
3764.8450,11149.1
3765.2969,11219.1
3765.7490,11295.1
3766.2007,11184.1
3766.6526,11210.1
3767.1042,11153.1
3767.5559,11176.1
3768.0073,11197.1
3768.4587,11241.1
3768.9102,11184.1
3769.3613,11135.1
3769.8125,11252.1
3770.2637,11236.1
3770.7146,11156.1
3771.1655,11186.1
3771.6162,11089.1
3772.0669,11278.1
3772.5176,11268.1
3772.9680,11142.1
3773.4185,11184.1
3773.8689,11226.1
3774.3191,11153.1
3774.7693,11138.1
3775.2195,11163.1
3775.6694,11095.1
3776.1194,11030.1
3776.5693,11174.1
3777.0190,11032.1
3777.4688,11070.1
3777.9182,11102.1
3778.3677,11148.1
3778.8171,11057.1
3779.2664,11041.1
3779.7156,11047.1
3780.1648,11135.1
3780.6138,11064.1
3781.0627,11049.1
3781.5117,11029.1
3781.9604,11108.1
3782.4092,11094.1
3782.8577,11067.1
3783.3062,11088.1
3783.7546,11100.1
3784.2031,11025.1
3784.6514,11063.1
3785.0994,10987.1
3785.5476,11014.1
3785.9956,10973.1
3786.4434,10932.1
3786.8911,10983.1
3787.3389,10991.1
3787.7866,10890.1
3788.2341,10917.1
3788.6816,10886.1
3789.1289,10984.1
3789.5762,10927.1
3790.0234,10905.1
3790.4705,10882.1
3790.9175,10943.1
3791.3645,10903.1
3791.8113,10868.1
3792.2581,10831.1
3792.7048,10917.1
3793.1514,10900.1
3793.5979,10900.1
3794.0444,10946.1
3794.4907,10938.1
3794.9370,10929.1
3795.3831,10845.1
3795.8291,10834.1
3796.2751,10783.1
3796.7209,10835.1
3797.1667,10773.1
3797.6125,10931.1
3798.0581,10801.1
3798.5037,10847.1
3798.9492,10896.1
3799.3945,10895.1
3799.8398,10795.1
3800.2849,10858.1
3800.7300,10812.1
3801.1750,10899.1
3801.6199,10811.1
3802.0649,10820.1
3802.5095,10706.1
3802.9543,10808.1
3803.3989,10810.1
3803.8433,10817.1
3804.2878,10916.1
3804.7319,10873.1
3805.1763,10818.1
3805.6204,10792.1
3806.0645,10777.1
3806.5085,10711.1
3806.9524,10718.1
3807.3962,10856.1
3807.8398,10737.1
3808.2834,10829.1
3808.7271,10691.1
3809.1704,10780.1
3809.6138,10793.1
3810.0571,10686.1
3810.5002,10707.1
3810.9434,10657.1
3811.3865,10578.1
3811.8293,10798.1
3812.2722,10661.1
3812.7148,10763.1
3813.1575,10614.1
3813.6001,10725.1
3814.0427,10677.1
3814.4851,10628.1
3814.9272,10661.1
3815.3696,10682.1
3815.8118,10749.1
3816.2537,10724.1
3816.6958,10632.1
3817.1377,10565.1
3817.5793,10566.1
3818.0212,10616.1
3818.4626,10664.1
3818.9043,10705.1
3819.3457,10603.1
3819.7871,10590.1
3820.2283,10581.1
3820.6697,10655.1
3821.1106,10572.1
3821.5518,10583.1
3821.9927,10664.1
3822.4333,10615.1
3822.8743,10633.1
3823.3149,10633.1
3823.7554,10609.1
3824.1960,10432.1
3824.6365,10497.1
3825.0767,10564.1
3825.5168,10572.1
3825.9570,10466.1
3826.3972,10605.1
3826.8372,10575.1
3827.2771,10506.1
3827.7168,10434.1
3828.1565,10471.1
3828.5962,10502.1
3829.0356,10490.1
3829.4751,10481.1
3829.9146,10525.1
3830.3538,10595.1
3830.7930,10500.1
3831.2322,10548.1
3831.6711,10390.1
3832.1101,10423.1
3832.5491,10394.1
3832.9878,10410.1
3833.4265,10506.1
3833.8650,10440.1
3834.3035,10413.1
3834.7419,10320.1
3835.1802,10445.1
3835.6184,10482.1
3836.0566,10382.1
3836.4949,10453.1
3836.9329,10419.1
3837.3706,10528.1
3837.8086,10500.1
3838.2461,10520.1
3838.6838,10380.1
3839.1213,10401.1
3839.5588,10407.1
3839.9963,10408.1
3840.4336,10410.1
3840.8708,10422.1
3841.3079,10463.1
3841.7449,10412.1
3842.1819,10449.1
3842.6189,10307.1
3843.0557,10372.1
3843.4922,10407.1
3843.9290,10373.1
3844.3655,10406.1
3844.8018,10337.1
3845.2383,10365.1
3845.6746,10306.1
3846.1106,10394.1
3846.5469,10435.1
3846.9827,10357.1
3847.4187,10364.1
3847.8545,10315.1
3848.2903,10444.1
3848.7261,10441.1
3849.1616,10278.1
3849.5972,10312.1
3850.0325,10341.1
3850.4678,10280.1
3850.9031,10302.1
3851.3381,10335.1
3851.7732,10283.1
3852.2083,10310.1
3852.6431,10343.1
3853.0779,10318.1
3853.5127,10351.1
3853.9473,10293.1
3854.3818,10261.1
3854.8164,10378.1
3855.2507,10371.1
3855.6851,10309.1
3856.1191,10220.1
3856.5535,10253.1
3856.9873,10319.1
3857.4214,10286.1
3857.8552,10181.1
3858.2891,10383.1
3858.7227,10337.1
3859.1563,10268.1
3859.5898,10268.1
3860.0232,10313.1
3860.4565,10245.1
3860.8899,10300.1
3861.3230,10248.1
3861.7561,10314.1
3862.1892,10372.1
3862.6221,10192.1
3863.0549,10318.1
3863.4878,10331.1
3863.9204,10180.1
3864.3530,10218.1
3864.7854,10261.1
3865.2178,10331.1
3865.6501,10291.1
3866.0825,10199.1
3866.5146,10295.1
3866.9468,10153.1
3867.3787,10279.1
3867.8105,10263.1
3868.2424,10323.1
3868.6741,10198.1
3869.1057,10311.1
3869.5374,10207.1
3869.9688,10238.1
3870.4001,10265.1
3870.8315,10181.1
3871.2627,10234.1
3871.6938,10243.1
3872.1250,10226.1
3872.5559,10272.1
3872.9868,10223.1
3873.4175,10190.1
3873.8484,10308.1
3874.2788,10175.1
3874.7095,10236.1
3875.1399,10202.1
3875.5703,10202.1
3876.0005,10105.1
3876.4307,10338.1
3876.8608,10233.1
3877.2910,10185.1
3877.7209,10137.1
3878.1506,10218.1
3878.5806,10200.1
3879.0103,10205.1
3879.4397,10228.1
3879.8694,10229.1
3880.2988,10277.1
3880.7280,10175.1
3881.1575,10214.1
3881.5867,10263.1
3882.0156,10084.1
3882.4446,10140.1
3882.8735,10143.1
3883.3025,10269.1
3883.7312,10145.1
3884.1599,10146.1
3884.5884,10135.1
3885.0168,10171.1
3885.4453,10173.1
3885.8738,10170.1
3886.3020,10235.1
3886.7302,10222.1
3887.1582,10217.1
3887.5862,10190.1
3888.0142,10225.1
3888.4419,10175.1
3888.8696,10104.1
3889.2974,10070.1
3889.7249,10170.1
3890.1523,10196.1
3890.5798,10106.1
3891.0071,10102.1
3891.4343,10180.1
3891.8616,10176.1
3892.2886,10028.1
3892.7156,10043.1
3893.1423,10112.1
3893.5691,10116.1
3893.9958,10251.1
3894.4226,10161.1
3894.8491,10187.1
3895.2756,10082.1
3895.7019,10037.1
3896.1282,10097.1
3896.5544,10147.1
3896.9807,10095.1
3897.4067,10106.1
3897.8325,10165.1
3898.2585,10152.1
3898.6843,10173.1
3899.1101,10105.1
3899.5356,10121.1
3899.9612,9983.14
3900.3867,9989.14
3900.8120,10161.1
3901.2373,10176.1
3901.6626,10090.1
3902.0876,10027.1
3902.5127,10075.1
3902.9377,10045.1
3903.3625,10023.1
3903.7874,10009.1
3904.2119,10042.1
3904.6365,10048.1
3905.0610,10099.1
3905.4856,10085.1
3905.9099,10055.1
3906.3342,10023.1
3906.7583,10019.1
3907.1826,9948.14
3907.6064,10070.1
3908.0305,10136.1
3908.4543,10086.1
3908.8782,10036.1
3909.3018,10160.1
3909.7253,10077.1
3910.1489,9933.14
3910.5723,10045.1
3910.9956,10102.1
3911.4189,10056.1
3911.8423,9942.14
3912.2654,10006.1
3912.6882,9955.14
3913.1113,9992.14
3913.5342,9917.14
3913.9568,10004.1
3914.3796,9918.14
3914.8020,9877.14
3915.2246,10040.1
3915.6470,10047.1
3916.0693,10084.1
3916.4917,10040.1
3916.9138,9940.14
3917.3359,9983.14
3917.7581,9984.14
3918.1799,10018.1
3918.6018,9983.14
3919.0234,10018.1
3919.4451,10010.1
3919.8667,9934.14
3920.2883,9881.14
3920.7097,9911.14
3921.1311,9938.14
3921.5522,9823.14
3921.9734,9898.14
3922.3945,9876.14
3922.8154,9946.14
3923.2366,9903.14
3923.6572,9905.14
3924.0781,9944.14
3924.4988,9904.14
3924.9194,9907.14
3925.3398,9894.14
3925.7603,9987.14
3926.1807,9885.14
3926.6008,9863.14
3927.0210,9976.14
3927.4412,9957.14
3927.8611,9802.14
3928.2810,9741.14
3928.7009,9885.14
3929.1206,9886.14
3929.5403,9837.14
3929.9600,9836.14
3930.3794,9964.14
3930.7988,9877.14
3931.2180,9776.14
3931.6375,9736.14
3932.0564,9702.14
3932.4756,9934.14
3932.8945,9799.14
3933.3135,9796.14
3933.7324,9903.14
3934.1511,9886.14
3934.5698,9803.14
3934.9883,9763.14
3935.4067,9796.14
3935.8252,9729.14
3936.2437,9732.14
3936.6619,9775.14
3937.0801,9894.14
3937.4980,9868.14
3937.9160,9817.14
3938.3340,9710.14
3938.7520,9757.14
3939.1697,9641.14
3939.5872,9718.14
3940.0049,9743.14
3940.4224,9848.14
3940.8398,9680.14
3941.2571,9781.14
3941.6743,9779.14
3942.0916,9781.14
3942.5085,9726.14
3942.9255,9642.14
3943.3425,9683.14
3943.7593,9745.14
3944.1760,9802.14
3944.5928,9669.14
3945.0093,9734.14
3945.4258,9764.14
3945.8423,9687.14
3946.2585,9624.14
3946.6748,9616.14
3947.0911,9744.14
3947.5071,9742.14
3947.9231,9683.14
3948.3391,9692.14
3948.7549,9745.14
3949.1707,9654.14
3949.5864,9548.14
3950.0020,9656.14
3950.4175,9713.14
3950.8328,9675.14
3951.2483,9564.14
3951.6636,9676.14
3952.0786,9795.14
3952.4937,9608.14
3952.9087,9614.14
3953.3237,9687.14
3953.7385,9663.14
3954.1533,9620.14
3954.5679,9561.14
3954.9827,9679.14
3955.3970,9731.14
3955.8115,9608.14
3956.2258,9546.14
3956.6401,9609.14
3957.0542,9576.14
3957.4685,9532.14
3957.8823,9593.14
3958.2964,9658.14
3958.7102,9657.14
3959.1240,9524.14
3959.5376,9475.14
3959.9512,9504.14
3960.3647,9711.14
3960.7783,9509.14
3961.1917,9478.14
3961.6050,9654.14
3962.0181,9610.14
3962.4312,9534.14
3962.8442,9542.14
3963.2571,9557.14
3963.6699,9581.14
3964.0828,9410.14
3964.4954,9503.14
3964.9082,9635.14
3965.3206,9679.14
3965.7332,9486.14
3966.1455,9490.14
3966.5576,9636.14
3966.9700,9480.14
3967.3821,9426.14
3967.7942,9419.14
3968.2061,9523.14
3968.6179,9528.14
3969.0298,9391.14
3969.4414,9444.14
3969.8530,9495.14
3970.2646,9509.14
3970.6760,9334.14
3971.0874,9356.14
3971.4988,9578.14
3971.9099,9593.14
3972.3210,9424.14
3972.7322,9526.14
3973.1431,9526.14
3973.5540,9535.14
3973.9648,9389.14
3974.3755,9458.14
3974.7861,9538.14
3975.1968,9506.14
3975.6072,9440.14
3976.0176,9452.14
3976.4277,9571.14
3976.8381,9535.14
3977.2483,9318.14
3977.6582,9330.14
3978.0684,9516.14
3978.4783,9486.14
3978.8879,9283.14
3979.2976,9374.14
3979.7073,9495.14
3980.1169,9557.14
3980.5264,9329.14
3980.9358,9359.14
3981.3452,9430.14
3981.7544,9378.14
3982.1636,9280.14
3982.5728,9350.14
3982.9817,9613.14
3983.3906,9467.14
3983.7993,9360.14
3984.2083,9297.14
3984.6167,9513.14
3985.0254,9394.14
3985.4338,9221.14
3985.8423,9339.14
3986.2507,9625.14
3986.6589,9514.14
3987.0671,9273.14
3987.4751,9360.14
3987.8833,9437.14
3988.2913,9394.14
3988.6990,9235.14
3989.1067,9403.14
3989.5144,9504.14
3989.9221,9476.14
3990.3296,9337.14
3990.7371,9430.14
3991.1443,9515.14
3991.5518,9465.14
3991.9587,9146.14
3992.3660,9346.14
3992.7729,9519.14
3993.1799,9473.14
3993.5869,9287.14
3993.9937,9317.14
3994.4004,9478.14
3994.8069,9525.14
3995.2134,9223.14
3995.6199,9316.14
3996.0264,9353.14
3996.4326,9417.14
3996.8389,9245.14
3997.2449,9339.14
3997.6511,9537.14
3998.0569,9473.14
3998.4629,9270.14
3998.8687,9274.14
3999.2744,9404.14
3999.6802,9358.14
4000.0857,9219.14

##### Extended Information
[āRāüāōāgÅŅĢ±]
ÄÄŚ┐¢╝,
āRāüāōāg,
æ¬ÆĶÄę
ÅŖæ«
ē’Äą,Ģ║ī╔ī¦Ś¦æÕŖwæÕŖwē@ŹHŖwīżŗåē╚

[āfü[ā^ÅŅĢ±]
ŹņÉ¼ō·Ä×,2025/10/24 12:19

āfü[ā^ā^āCāv,ĢsōÖŖįŖuāfü[ā^
ēĪÄ▓,Raman Shift [cm-1]
ÅcÄ▓,Int.
āXā^ü[āg,999.935 cm-1
āGāōāh,4000.09 cm-1
āfü[ā^Éö,5264    

[æ¬ÆĶÅŅĢ±]
ŗ@ÄĒ¢╝,NRS-4500
āVāŖāAāŗöįŹå,C004261984

æ¬ÆĶō·Ä×,2025/10/24 12:17

śIī§Ä×Ŗį,1 sec
ÉŽÄZē±Éö,1
ÆåÉSögÉö,1618.53 cm-1
ZāXāeü[āWł╩Æu,14327.3 um
ārājāōāOÅŃī└,70
ārājāōāOē║ī└,129
ŚLī°ā`āāāōālāŗö═ł═,1 - 1650
Shift Speed,13 usecs
Readout Rate,1.48MHz at 16-bit
Pre-Amplifier Gain,1x
Enable Keep Cleans,ON
Baseline Clamp,OFF
CCD,DR32400_FI

ŚŃŗNögÆĘ,531.94 nm
Ģ¬ī§ŖĒ,āVāōāOāŗ
āOāīü[āeāBāōāO,L2400
āXāŖābāgĢØ,āė100 um
āŖāWāFāNāVāćāōātāBāŗā^ü[,531.9 nm
Ģ¬ē­,4.35 cm-1, 0.70 cm-1/pixel
æ╬Ģ©āīāōāY,MPLFLN 100 x
BS/DM,BS 30/70
āīü[āUü[ŗŁōx,18.9 mW
īĖī§ŖĒ,100%(āIü[āvāō)
ēFÆłÉ³Å£ŗÄ,On
CCDēĘōx,-60.0 C
ögÉöāVātāg,-2.70 cm-1

